8000.61703	-0.31590
7996.75945	-0.01358
7992.90187	-0.28306
7989.04430	-0.36190
7985.18672	1.44219
7981.32914	1.44219
7977.47156	3.26413
7973.61398	2.12386
7969.75641	1.65795
7965.89883	1.65795
7962.04125	1.65795
7958.18367	1.65795
7954.32609	1.65795
7950.46852	1.65795
7946.61094	1.65795
7942.75336	4.19141
7938.89578	1.49293
7935.03820	0.26094
7931.18062	0.34048
7927.32305	1.70329
7923.46547	1.67008
7919.60789	0.31469
7915.75031	-0.27930
7911.89273	0.26342
7908.03516	0.42014
7904.17758	0.37559
7900.32000	0.37559
7896.46242	0.37559
7892.60484	0.52286
7888.74727	0.60283
7884.88969	2.42333
7881.03211	0.25303
7877.17453	0.16044
7873.31695	0.18364
7869.45937	0.18364
7865.60180	0.18364
7861.74422	1.97155
7857.88664	0.59361
7854.02906	0.49900
7850.17148	1.88380
7846.31391	2.29698
7842.45633	1.33095
7838.59875	1.24041
7834.74117	5.14419
7830.88359	1.05319
7827.02602	0.37087
7823.16844	0.15696
7819.31086	0.15696
7815.45328	0.15696
7811.59570	1.15085
7807.73812	0.71859
7803.88055	0.39782
7800.02297	0.63954
7796.16539	0.95253
7792.30781	0.64915
7788.45023	0.38276
7784.59266	0.31646
7780.73508	0.37084
7776.87750	0.50264
7773.01992	1.19381
7769.16234	2.06872
7765.30477	1.60659
7761.44719	1.69013
7757.58961	2.71112
7753.73203	2.10796
7749.87445	1.54736
7746.01687	0.88889
7742.15930	0.55289
7738.30172	0.47831
7734.44414	0.56495
7730.58656	0.50988
7726.72898	-0.32338
7722.87141	-0.11765
7719.01383	0.39076
7715.15625	0.85004
7711.29867	1.37021
7707.44109	1.27062
7703.58352	1.22642
7699.72594	1.53405
7695.86836	1.77895
7692.01078	1.49560
7688.15320	2.01833
7684.29562	1.62157
7680.43805	1.31798
7676.58047	1.70715
7672.72289	1.59127
7668.86531	1.20645
7665.00773	1.06463
7661.15016	1.31067
7657.29258	3.50410
7653.43500	4.92357
7649.57742	2.02996
7645.71984	2.52180
7641.86227	2.19605
7638.00469	1.25006
7634.14711	0.86203
7630.28953	0.58964
7626.43195	0.58661
7622.57437	0.92727
7618.71680	1.35633
7614.85922	1.20073
7611.00164	1.22256
7607.14406	1.67109
7603.28648	1.46747
7599.42891	1.16741
7595.57133	1.48874
7591.71375	2.04255
7587.85617	1.08893
7583.99859	0.77959
7580.14102	1.25655
7576.28344	0.86025
7572.42586	0.45297
7568.56828	0.56263
7564.71070	1.13621
7560.85312	1.36541
7556.99555	1.16104
7553.13797	1.15574
7549.28039	1.31866
7545.42281	1.22426
7541.56523	1.28093
7537.70766	1.31558
7533.85008	0.94511
7529.99250	0.59129
7526.13492	0.70906
7522.27734	1.01297
7518.41977	0.90261
7514.56219	0.93745
7510.70461	1.24285
7506.84703	1.05597
7502.98945	0.90667
7499.13187	1.08043
7495.27430	1.07697
7491.41672	0.99582
7487.55914	1.11633
7483.70156	1.12952
7479.84398	0.86652
7475.98641	0.85877
7472.12883	1.56409
7468.27125	1.70436
7464.41367	0.89428
7460.55609	0.79556
7456.69852	0.95235
7452.84094	0.94154
7448.98336	0.97618
7445.12578	1.00468
7441.26820	1.06941
7437.41062	1.15873
7433.55305	0.93089
7429.69547	0.76847
7425.83789	1.11545
7421.98031	1.72577
7418.12273	1.17951
7414.26516	0.91777
7410.40758	1.16902
7406.55000	1.01376
7402.69242	0.78690
7398.83484	0.85047
7394.97727	0.81560
7391.11969	0.91476
7387.26211	1.32375
7383.40453	1.00692
7379.54695	0.68612
7375.68937	0.78391
7371.83180	1.13639
7367.97422	1.30027
7364.11664	1.42859
7360.25906	1.49522
7356.40148	0.88966
7352.54391	0.69593
7348.68633	1.09069
7344.82875	1.45208
7340.97117	1.07066
7337.11359	0.91194
7333.25602	0.82786
7329.39844	0.79268
7325.54086	0.89743
7321.68328	0.92318
7317.82570	0.91103
7313.96812	0.99705
7310.11055	1.06747
7306.25297	1.03080
7302.39539	1.12150
7298.53781	1.12380
7294.68023	0.95080
7290.82266	0.81758
7286.96508	0.76145
7283.10750	0.75289
7279.24992	0.88245
7275.39234	1.06819
7271.53477	1.09138
7267.67719	1.20407
7263.81961	1.34019
7259.96203	1.14417
7256.10445	1.14515
7252.24687	1.02515
7248.38930	0.75786
7244.53172	0.93521
7240.67414	1.33590
7236.81656	0.98557
7232.95898	0.69621
7229.10141	0.86910
7225.24383	1.23243
7221.38625	1.20617
7217.52867	0.98942
7213.67109	0.88508
7209.81352	0.94756
7205.95594	1.02042
7202.09836	0.92757
7198.24078	0.93739
7194.38320	1.04250
7190.52562	1.09459
7186.66805	1.36347
7182.81047	1.61267
7178.95289	1.11791
7175.09531	0.92204
7171.23773	0.96197
7167.38016	1.07624
7163.52258	1.04956
7159.66500	0.95026
7155.80742	1.17505
7151.94984	1.13833
7148.09227	0.79578
7144.23469	0.81443
7140.37711	1.10947
7136.51953	1.21270
7132.66195	1.02570
7128.80437	0.93793
7124.94680	0.92074
7121.08922	0.87205
7117.23164	0.87636
7113.37406	0.80681
7109.51648	0.69938
7105.65891	0.82402
7101.80133	1.15603
7097.94375	1.19145
7094.08617	0.99055
7090.22859	0.93552
7086.37102	0.89894
7082.51344	0.99836
7078.65586	1.20058
7074.79828	1.10688
7070.94070	0.98750
7067.08312	1.13509
7063.22555	1.36605
7059.36797	1.15754
7055.51039	0.92604
7051.65281	0.99267
7047.79523	0.98929
7043.93766	0.91244
7040.08008	0.85200
7036.22250	0.77275
7032.36492	0.82985
7028.50734	0.87954
7024.64977	0.94196
7020.79219	1.05190
7016.93461	1.05439
7013.07703	1.11963
7009.21945	1.08901
7005.36187	0.93420
7001.50430	0.84926
6997.64672	0.76609
6993.78914	0.77851
6989.93156	0.86138
6986.07398	0.88894
6982.21641	0.96194
6978.35883	1.05259
6974.50125	1.07409
6970.64367	1.08533
6966.78609	0.97088
6962.92852	0.94516
6959.07094	1.09159
6955.21336	1.04042
6951.35578	0.94439
6947.49820	1.13351
6943.64062	1.15615
6939.78305	1.05100
6935.92547	1.18581
6932.06789	1.19193
6928.21031	0.90303
6924.35273	0.79503
6920.49516	0.88339
6916.63758	1.04729
6912.78000	1.28600
6908.92242	1.17847
6905.06484	0.96579
6901.20727	1.01759
6897.34969	1.06365
6893.49211	1.03216
6889.63453	1.07384
6885.77695	1.02633
6881.91937	0.92302
6878.06180	0.97566
6874.20422	1.14845
6870.34664	1.11081
6866.48906	0.89760
6862.63148	0.88931
6858.77391	1.00820
6854.91633	1.11390
6851.05875	1.26809
6847.20117	1.26499
6843.34359	1.17121
6839.48602	1.17597
6835.62844	1.06140
6831.77086	0.95461
6827.91328	0.96312
6824.05570	0.99228
6820.19812	1.01825
6816.34055	1.07580
6812.48297	1.17068
6808.62539	1.08354
6804.76781	0.89700
6800.91023	0.87222
6797.05266	0.89360
6793.19508	0.93498
6789.33750	1.00575
6785.47992	0.91617
6781.62234	0.90512
6777.76477	1.05348
6773.90719	1.03376
6770.04961	0.94406
6766.19203	1.03397
6762.33445	1.08370
6758.47687	1.01350
6754.61930	0.94123
6750.76172	0.87311
6746.90414	0.90494
6743.04656	0.97048
6739.18898	0.95767
6735.33141	0.95099
6731.47383	0.91749
6727.61625	0.91171
6723.75867	0.99222
6719.90109	0.98135
6716.04352	0.94578
6712.18594	1.01157
6708.32836	1.02485
6704.47078	0.91797
6700.61320	0.87201
6696.75562	0.92749
6692.89805	1.00388
6689.04047	1.04568
6685.18289	0.96098
6681.32531	0.89849
6677.46773	1.02095
6673.61016	1.14271
6669.75258	1.10365
6665.89500	1.00006
6662.03742	0.97013
6658.17984	0.97586
6654.32227	0.96924
6650.46469	1.00850
6646.60711	1.02535
6642.74953	0.99421
6638.89195	0.99689
6635.03437	1.02107
6631.17680	1.03601
6627.31922	0.95839
6623.46164	0.86044
6619.60406	0.89295
6615.74648	1.00171
6611.88891	1.00113
6608.03133	0.95501
6604.17375	0.96447
6600.31617	0.98612
6596.45859	1.02973
6592.60102	1.08027
6588.74344	1.02770
6584.88586	0.96301
6581.02828	0.94790
6577.17070	0.93165
6573.31312	0.94137
6569.45555	0.98098
6565.59797	1.00491
6561.74039	1.00809
6557.88281	0.97835
6554.02523	0.95564
6550.16766	0.96267
6546.31008	0.99467
6542.45250	1.05470
6538.59492	1.05101
6534.73734	1.00844
6530.87977	0.96345
6527.02219	0.95426
6523.16461	1.05306
6519.30703	1.07539
6515.44945	1.02067
6511.59187	1.01057
6507.73430	0.99031
6503.87672	1.03608
6500.01914	1.08692
6496.16156	1.02360
6492.30398	1.02921
6488.44641	1.02889
6484.58883	0.91321
6480.73125	0.88249
6476.87367	0.91726
6473.01609	0.90245
6469.15852	0.88514
6465.30094	0.87296
6461.44336	0.92507
6457.58578	1.05866
6453.72820	1.05860
6449.87062	0.96059
6446.01305	0.94845
6442.15547	1.00708
6438.29789	1.08138
6434.44031	1.11626
6430.58273	1.06874
6426.72516	0.99490
6422.86758	0.95669
6419.01000	0.97368
6415.15242	0.99134
6411.29484	1.01283
6407.43727	1.10723
6403.57969	1.16188
6399.72211	1.05864
6395.86453	0.97788
6392.00695	1.02563
6388.14937	1.13537
6384.29180	1.12529
6380.43422	1.02505
6376.57664	1.00532
6372.71906	1.01145
6368.86148	0.93161
6365.00391	0.91661
6361.14633	0.99098
6357.28875	1.01323
6353.43117	0.99596
6349.57359	0.99756
6345.71602	1.00950
6341.85844	1.00730
6338.00086	1.03016
6334.14328	1.07330
6330.28570	1.05552
6326.42812	1.04437
6322.57055	1.04603
6318.71297	1.02647
6314.85539	1.06524
6310.99781	1.05370
6307.14023	0.95444
6303.28266	0.94592
6299.42508	1.02008
6295.56750	1.01921
6291.70992	0.95537
6287.85234	0.95732
6283.99477	0.97624
6280.13719	0.96926
6276.27961	0.97799
6272.42203	0.96298
6268.56445	0.96242
6264.70687	1.03449
6260.84930	1.07428
6256.99172	1.05297
6253.13414	1.04945
6249.27656	1.05772
6245.41898	1.04340
6241.56141	1.01301
6237.70383	0.97407
6233.84625	0.93122
6229.98867	0.94955
6226.13109	1.00286
6222.27352	0.99039
6218.41594	0.96377
6214.55836	0.92936
6210.70078	0.90850
6206.84320	0.94575
6202.98562	0.95616
6199.12805	0.99266
6195.27047	1.05920
6191.41289	1.02430
6187.55531	1.00916
6183.69773	1.04213
6179.84016	1.04152
6175.98258	1.05679
6172.12500	1.04605
6168.26742	1.01334
6164.40984	1.04350
6160.55227	1.04955
6156.69469	0.99854
6152.83711	0.98450
6148.97953	1.00980
6145.12195	1.01794
6141.26437	0.98506
6137.40680	0.96848
6133.54922	1.00213
6129.69164	1.01707
6125.83406	1.00942
6121.97648	1.02144
6118.11891	1.02386
6114.26133	0.99029
6110.40375	0.97384
6106.54617	1.00460
6102.68859	1.02549
6098.83102	1.04821
6094.97344	1.09040
6091.11586	1.06600
6087.25828	0.98984
6083.40070	0.96922
6079.54312	1.02021
6075.68555	1.03165
6071.82797	0.95271
6067.97039	0.89893
6064.11281	0.94514
6060.25523	1.01792
6056.39766	1.02795
6052.54008	1.04536
6048.68250	1.06638
6044.82492	1.02861
6040.96734	0.99482
6037.10977	0.98715
6033.25219	0.99669
6029.39461	1.00240
6025.53703	0.96907
6021.67945	0.94973
6017.82187	0.96631
6013.96430	0.98478
6010.10672	1.01070
6006.24914	1.04890
6002.39156	1.06706
5998.53398	1.04418
5994.67641	1.02189
5990.81883	1.00232
5986.96125	0.95561
5983.10367	0.96503
5979.24609	1.03910
5975.38852	1.05472
5971.53094	1.01041
5967.67336	0.99264
5963.81578	0.99775
5959.95820	1.00013
5956.10062	1.00771
5952.24305	1.01432
5948.38547	0.99282
5944.52789	0.98273
5940.67031	1.00812
5936.81273	1.01369
5932.95516	0.99799
5929.09758	0.99176
5925.24000	0.99601
5921.38242	1.01410
5917.52484	1.03132
5913.66727	1.03084
5909.80969	1.01714
5905.95211	0.99269
5902.09453	0.98851
5898.23695	1.02185
5894.37937	1.02351
5890.52180	0.99180
5886.66422	0.98771
5882.80664	0.98586
5878.94906	0.97058
5875.09148	0.96140
5871.23391	0.95485
5867.37633	0.96399
5863.51875	0.98145
5859.66117	0.97356
5855.80359	0.97146
5851.94602	1.01013
5848.08844	1.02820
5844.23086	1.01117
5840.37328	1.00868
5836.51570	0.98752
5832.65812	0.96419
5828.80055	0.99862
5824.94297	1.02517
5821.08539	1.01369
5817.22781	1.01832
5813.37023	1.00039
5809.51266	0.98168
5805.65508	1.01378
5801.79750	1.00420
5797.93992	0.97944
5794.08234	1.00768
5790.22477	1.02327
5786.36719	1.04059
5782.50961	1.05966
5778.65203	1.01574
5774.79445	0.98495
5770.93687	1.02252
5767.07930	1.02358
5763.22172	0.97605
5759.36414	0.96012
5755.50656	0.95926
5751.64898	1.00714
5747.79141	1.05399
5743.93383	0.99134
5740.07625	0.96708
5736.21867	1.02007
5732.36109	1.02283
5728.50352	0.99218
5724.64594	0.97686
5720.78836	0.99362
5716.93078	1.03080
5713.07320	1.02235
5709.21562	0.97645
5705.35805	0.98595
5701.50047	1.03986
5697.64289	1.03436
5693.78531	1.00910
5689.92773	1.01213
5686.07016	0.99431
5682.21258	0.97775
5678.35500	0.98545
5674.49742	0.98803
5670.63984	0.99591
5666.78227	1.00811
5662.92469	0.99707
5659.06711	0.98275
5655.20953	0.99722
5651.35195	1.01588
5647.49437	0.99118
5643.63680	0.96633
5639.77922	0.98803
5635.92164	0.99775
5632.06406	0.98533
5628.20648	0.98598
5624.34891	0.97800
5620.49133	0.96647
5616.63375	0.98028
5612.77617	1.00851
5608.91859	1.01493
5605.06102	1.00663
5601.20344	1.01866
5597.34586	1.02011
5593.48828	0.98668
5589.63070	0.96897
5585.77312	0.98352
5581.91555	1.00013
5578.05797	1.00718
5574.20039	0.99722
5570.34281	0.98993
5566.48523	0.99762
5562.62766	0.99820
5558.77008	1.01618
5554.91250	1.03368
5551.05492	1.01095
5547.19734	0.98910
5543.33977	0.98855
5539.48219	0.99464
5535.62461	0.99155
5531.76703	0.99416
5527.90945	1.01868
5524.05187	1.02601
5520.19430	1.01051
5516.33672	0.99801
5512.47914	0.98520
5508.62156	0.97922
5504.76398	0.99430
5500.90641	0.99121
5497.04883	0.95957
5493.19125	0.95715
5489.33367	0.98635
5485.47609	0.99401
5481.61852	0.97255
5477.76094	0.95934
5473.90336	0.98670
5470.04578	1.00347
5466.18820	0.99544
5462.33062	1.00269
5458.47305	1.01656
5454.61547	1.02064
5450.75789	1.01564
5446.90031	1.00700
5443.04273	1.00178
5439.18516	0.99656
5435.32758	0.99002
5431.47000	0.97361
5427.61242	0.95913
5423.75484	0.97499
5419.89727	1.00751
5416.03969	1.02392
5412.18211	1.00469
5408.32453	0.98431
5404.46695	0.98408
5400.60937	0.99019
5396.75180	1.00165
5392.89422	0.99935
5389.03664	0.99983
5385.17906	1.01022
5381.32148	0.99820
5377.46391	1.00302
5373.60633	1.00822
5369.74875	0.98217
5365.89117	0.97702
5362.03359	0.99247
5358.17602	1.00829
5354.31844	1.00986
5350.46086	0.98882
5346.60328	0.98565
5342.74570	0.98641
5338.88812	0.97797
5335.03055	0.98410
5331.17297	0.99341
5327.31539	0.99466
5323.45781	0.99864
5319.60023	1.02033
5315.74266	1.03538
5311.88508	1.00996
5308.02750	0.98847
5304.16992	0.99081
5300.31234	0.98435
5296.45477	0.98137
5292.59719	0.98285
5288.73961	0.99405
5284.88203	1.02292
5281.02445	1.02056
5277.16687	0.99422
5273.30930	0.99034
5269.45172	1.00904
5265.59414	1.01800
5261.73656	1.00928
5257.87898	1.01217
5254.02141	1.00860
5250.16383	1.01661
5246.30625	1.04957
5242.44867	1.03181
5238.59109	0.99197
5234.73352	0.99183
5230.87594	1.01540
5227.01836	1.01528
5223.16078	0.99155
5219.30320	0.99821
5215.44562	1.02049
5211.58805	1.00837
5207.73047	0.98757
5203.87289	0.99232
5200.01531	0.99769
5196.15773	1.00050
5192.30016	1.00962
5188.44258	1.01068
5184.58500	1.00796
5180.72742	0.99433
5176.86984	0.97051
5173.01227	0.97636
5169.15469	0.99887
5165.29711	1.00433
5161.43953	1.00009
5157.58195	0.99212
5153.72437	0.99014
5149.86680	0.99361
5146.00922	0.99652
5142.15164	1.00675
5138.29406	1.01366
5134.43648	1.00729
5130.57891	0.99889
5126.72133	0.99507
5122.86375	0.99210
5119.00617	0.99304
5115.14859	1.00248
5111.29102	1.00606
5107.43344	0.99257
5103.57586	0.98096
5099.71828	0.98941
5095.86070	1.00535
5092.00312	1.01302
5088.14555	1.00598
5084.28797	0.98735
5080.43039	0.98485
5076.57281	1.00014
5072.71523	1.00876
5068.85766	1.01383
5065.00008	1.01119
5061.14250	0.99749
5057.28492	0.99757
5053.42734	1.00637
5049.56977	0.99807
5045.71219	0.99233
5041.85461	1.00101
5037.99703	1.00247
5034.13945	1.00316
5030.28187	1.00566
5026.42430	1.00765
5022.56672	1.01416
5018.70914	1.00957
5014.85156	0.99789
5010.99398	0.99045
5007.13641	0.99057
5003.27883	0.99638
4999.42125	0.99807
4995.56367	0.99976
4991.70609	0.99451
4987.84852	0.99522
4983.99094	1.01402
4980.13336	1.02323
4976.27578	1.01102
4972.41820	0.98537
4968.56062	0.97899
4964.70305	0.99549
4960.84547	1.00615
4956.98789	1.01241
4953.13031	1.00541
4949.27273	0.99673
4945.41516	0.99656
4941.55758	0.99410
4937.70000	1.00765
4933.84242	1.01290
4929.98484	0.99944
4926.12727	1.00406
4922.26969	1.00107
4918.41211	0.97981
4914.55453	0.99202
4910.69695	1.02110
4906.83937	1.01052
4902.98180	0.99474
4899.12422	0.99890
4895.26664	0.99520
4891.40906	0.99846
4887.55148	1.00388
4883.69391	0.99162
4879.83633	0.98441
4875.97875	0.98768
4872.12117	0.99520
4868.26359	1.00617
4864.40602	1.01251
4860.54844	1.00795
4856.69086	0.99319
4852.83328	0.98513
4848.97570	0.98751
4845.11812	0.98607
4841.26055	0.99161
4837.40297	1.00920
4833.54539	1.01271
4829.68781	1.00319
4825.83023	1.00784
4821.97266	1.01166
4818.11508	0.98921
4814.25750	0.96863
4810.39992	0.97626
4806.54234	0.99728
4802.68477	1.01120
4798.82719	1.01168
4794.96961	1.00247
4791.11203	0.99244
4787.25445	0.99652
4783.39687	1.00545
4779.53930	1.00027
4775.68172	0.99348
4771.82414	0.99099
4767.96656	0.98963
4764.10898	0.99934
4760.25141	1.01704
4756.39383	1.01768
4752.53625	0.99811
4748.67867	0.99271
4744.82109	1.00048
4740.96352	1.00012
4737.10594	1.00206
4733.24836	0.99646
4729.39078	0.98540
4725.53320	0.99367
4721.67562	1.00512
4717.81805	1.00568
4713.96047	1.00600
4710.10289	1.00705
4706.24531	1.00690
4702.38773	1.00506
4698.53016	0.99885
4694.67258	0.98870
4690.81500	0.98626
4686.95742	0.99595
4683.09984	0.99966
4679.24227	0.99222
4675.38469	0.99148
4671.52711	1.00440
4667.66953	1.01214
4663.81195	1.00144
4659.95437	0.99427
4656.09680	1.00108
4652.23922	0.99916
4648.38164	0.99411
4644.52406	1.00616
4640.66648	1.00855
4636.80891	0.98694
4632.95133	0.98485
4629.09375	1.01231
4625.23617	1.02281
4621.37859	1.00912
4617.52102	1.00180
4613.66344	0.99882
4609.80586	0.99007
4605.94828	0.98406
4602.09070	0.98958
4598.23312	1.00658
4594.37555	1.01761
4590.51797	1.00660
4586.66039	0.99410
4582.80281	0.99862
4578.94523	1.00314
4575.08766	1.00027
4571.23008	0.99897
4567.37250	1.00315
4563.51492	1.00471
4559.65734	0.99320
4555.79977	0.99466
4551.94219	1.00958
4548.08461	1.00263
4544.22703	0.99202
4540.36945	0.99482
4536.51187	0.99782
4532.65430	0.99510
4528.79672	0.98759
4524.93914	0.98952
4521.08156	0.99900
4517.22398	1.00305
4513.36641	0.99875
4509.50883	0.99211
4505.65125	0.99674
4501.79367	1.00813
4497.93609	1.01193
4494.07852	1.00341
4490.22094	0.99764
4486.36336	1.00406
4482.50578	1.00121
4478.64820	0.99424
4474.79062	1.00012
4470.93305	1.00517
4467.07547	1.00408
4463.21789	1.00121
4459.36031	0.99856
4455.50273	0.99918
4451.64516	0.99328
4447.78758	0.98911
4443.93000	1.00545
4440.07242	1.01331
4436.21484	1.00066
4432.35727	1.00318
4428.49969	1.00797
4424.64211	0.99588
4420.78453	0.99304
4416.92695	1.00157
4413.06937	1.00396
4409.21180	0.99856
4405.35422	1.00004
4401.49664	1.01385
4397.63906	1.01241
4393.78148	0.99623
4389.92391	0.99745
4386.06633	1.00571
4382.20875	1.00200
4378.35117	0.99818
4374.49359	0.99737
4370.63602	0.99762
4366.77844	1.00730
4362.92086	1.01954
4359.06328	1.02037
4355.20570	1.01514
4351.34812	1.01012
4347.49055	1.00720
4343.63297	1.00852
4339.77539	1.00591
4335.91781	1.00219
4332.06023	1.00364
4328.20266	1.00332
4324.34508	1.00031
4320.48750	0.99533
4316.62992	0.99029
4312.77234	0.98953
4308.91477	0.99357
4305.05719	0.99902
4301.19961	0.99429
4297.34203	0.98587
4293.48445	0.99095
4289.62687	0.99903
4285.76930	1.00142
4281.91172	1.00390
4278.05414	1.00400
4274.19656	1.00072
4270.33898	0.99167
4266.48141	0.98309
4262.62383	0.98817
4258.76625	0.99607
4254.90867	0.99711
4251.05109	0.99605
4247.19352	0.99233
4243.33594	0.99066
4239.47836	0.99591
4235.62078	1.00349
4231.76320	1.00652
4227.90562	1.00457
4224.04805	1.00121
4220.19047	0.99539
4216.33289	0.99103
4212.47531	0.99026
4208.61773	0.98888
4204.76016	0.99167
4200.90258	0.99933
4197.04500	1.00262
4193.18742	1.00191
4189.32984	1.00077
4185.47227	0.99825
4181.61469	0.99763
4177.75711	1.00158
4173.89953	1.00588
4170.04195	1.00420
4166.18437	0.99855
4162.32680	0.99592
4158.46922	0.99716
4154.61164	0.99971
4150.75406	0.99856
4146.89648	0.99709
4143.03891	1.00053
4139.18133	0.99937
4135.32375	0.99772
4131.46617	1.00376
4127.60859	1.00570
4123.75102	1.00399
4119.89344	1.00534
4116.03586	1.00479
4112.17828	1.00542
4108.32070	1.00937
4104.46312	1.00746
4100.60555	1.00095
4096.74797	0.99825
4092.89039	0.99712
4089.03281	0.99551
4085.17523	0.99761
4081.31766	1.00244
4077.46008	1.00357
4073.60250	1.00205
4069.74492	1.00152
4065.88734	0.99733
4062.02977	0.99367
4058.17219	0.99710
4054.31461	0.99728
4050.45703	0.99311
4046.59945	0.99531
4042.74187	0.99988
4038.88430	0.99968
4035.02672	0.99896
4031.16914	0.99969
4027.31156	0.99852
4023.45398	0.99465
4019.59641	0.98990
4015.73883	0.98774
4011.88125	0.99142
4008.02367	0.99901
4004.16609	1.00382
4000.30852	1.00443
3996.45094	1.00411
3992.59336	1.00331
3988.73578	1.00192
3984.87820	0.99903
3981.02062	0.99832
3977.16305	1.00246
3973.30547	1.00218
3969.44789	0.99873
3965.59031	0.99848
3961.73273	0.99678
3957.87516	0.99560
3954.01758	0.99768
3950.16000	1.00091
3946.30242	1.00324
3942.44484	0.99959
3938.58727	0.99406
3934.72969	0.99411
3930.87211	0.99867
3927.01453	1.00284
3923.15695	1.00349
3919.29937	1.00174
3915.44180	1.00374
3911.58422	1.00432
3907.72664	1.00008
3903.86906	0.99678
3900.01148	0.99664
3896.15391	0.99890
3892.29633	1.00453
3888.43875	1.00677
3884.58117	1.00460
3880.72359	0.99923
3876.86602	0.99339
3873.00844	0.99060
3869.15086	0.99030
3865.29328	0.99388
3861.43570	1.00027
3857.57812	0.99858
3853.72055	0.98977
3849.86297	0.99825
3846.00539	1.00707
3842.14781	1.00958
3838.29023	1.00533
3834.43266	1.00388
3830.57508	1.00312
3826.71750	1.00063
3822.85992	1.00343
3819.00234	1.00690
3815.14477	1.00235
3811.28719	1.00077
3807.42961	0.99916
3803.57203	0.99556
3799.71445	1.00110
3795.85687	1.00719
3791.99930	1.00310
3788.14172	0.99729
3784.28414	0.99983
3780.42656	1.00574
3776.56898	1.00488
3772.71141	1.00064
3768.85383	0.99948
3764.99625	1.00282
3761.13867	1.00320
3757.28109	0.99929
3753.42352	0.99514
3749.56594	0.99702
3745.70836	1.00489
3741.85078	1.00574
3737.99320	1.00311
3734.13562	0.99817
3730.27805	0.99739
3726.42047	1.00555
3722.56289	1.00733
3718.70531	0.99789
3714.84773	0.99781
3710.99016	1.00349
3707.13258	1.00326
3703.27500	1.00353
3699.41742	1.00094
3695.55984	0.99739
3691.70227	0.99280
3687.84469	0.99289
3683.98711	0.99800
3680.12953	0.99748
3676.27195	0.99732
3672.41437	1.00173
3668.55680	1.00098
3664.69922	1.00165
3660.84164	1.00276
3656.98406	1.00109
3653.12648	0.99734
3649.26891	0.99388
3645.41133	0.99729
3641.55375	1.00059
3637.69617	1.00242
3633.83859	1.00449
3629.98102	1.00548
3626.12344	1.00207
3622.26586	0.99846
3618.40828	0.99384
3614.55070	0.99357
3610.69312	0.99958
3606.83555	1.00022
3602.97797	0.99678
3599.12039	0.99849
3595.26281	1.00074
3591.40523	1.00167
3587.54766	1.00344
3583.69008	1.00044
3579.83250	0.99973
3575.97492	1.00095
3572.11734	1.00022
3568.25977	1.00340
3564.40219	1.00333
3560.54461	0.99863
3556.68703	0.99730
3552.82945	0.99637
3548.97187	0.99775
3545.11430	1.00077
3541.25672	1.00101
3537.39914	0.99979
3533.54156	0.99811
3529.68398	0.99990
3525.82641	1.00002
3521.96883	0.99643
3518.11125	0.99784
3514.25367	0.99899
3510.39609	0.99853
3506.53852	1.00068
3502.68094	1.00119
3498.82336	0.99962
3494.96578	0.99880
3491.10820	0.99897
3487.25062	0.99904
3483.39305	0.99923
3479.53547	1.00050
3475.67789	0.99973
3471.82031	0.99806
3467.96273	0.99868
3464.10516	0.99871
3460.24758	0.99751
3456.39000	0.99927
3452.53242	1.00162
3448.67484	1.00062
3444.81727	1.00011
3440.95969	1.00042
3437.10211	0.99850
3433.24453	0.99727
3429.38695	0.99918
3425.52937	1.00198
3421.67180	1.00152
3417.81422	1.00012
3413.95664	1.00074
3410.09906	0.99891
3406.24148	0.99637
3402.38391	0.99636
3398.52633	0.99666
3394.66875	0.99897
3390.81117	1.00100
3386.95359	0.99879
3383.09602	0.99807
3379.23844	1.00083
3375.38086	1.00223
3371.52328	1.00231
3367.66570	1.00250
3363.80812	1.00202
3359.95055	1.00139
3356.09297	1.00107
3352.23539	0.99924
3348.37781	0.99754
3344.52023	0.99949
3340.66266	1.00039
3336.80508	0.99836
3332.94750	0.99924
3329.08992	1.00001
3325.23234	0.99840
3321.37477	0.99920
3317.51719	1.00052
3313.65961	1.00092
3309.80203	1.00109
3305.94445	0.99907
3302.08687	0.99808
3298.22930	0.99855
3294.37172	0.99865
3290.51414	1.00024
3286.65656	1.00025
3282.79898	0.99948
3278.94141	1.00171
3275.08383	1.00248
3271.22625	1.00016
3267.36867	0.99903
3263.51109	0.99946
3259.65352	0.99754
3255.79594	0.99610
3251.93836	0.99886
3248.08078	1.00021
3244.22320	1.00062
3240.36562	1.00211
3236.50805	1.00150
3232.65047	1.00067
3228.79289	1.00090
3224.93531	1.00142
3221.07773	1.00026
3217.22016	0.99872
3213.36258	0.99974
3209.50500	0.99912
3205.64742	0.99837
3201.78984	0.99873
3197.93227	0.99738
3194.07469	0.99900
3190.21711	1.00095
3186.35953	0.99981
3182.50195	0.99930
3178.64437	0.99880
3174.78680	0.99977
3170.92922	1.00178
3167.07164	1.00165
3163.21406	1.00122
3159.35648	1.00048
3155.49891	0.99938
3151.64133	0.99898
3147.78375	0.99894
3143.92617	0.99973
3140.06859	1.00034
3136.21102	1.00015
3132.35344	1.00036
3128.49586	1.00117
3124.63828	1.00188
3120.78070	1.00137
3116.92312	1.00032
3113.06555	1.00038
3109.20797	1.00067
3105.35039	1.00033
3101.49281	0.99994
3097.63523	0.99979
3093.77766	0.99995
3089.92008	0.99920
3086.06250	0.99846
3082.20492	0.99978
3078.34734	1.00120
3074.48977	1.00131
3070.63219	1.00013
3066.77461	0.99836
3062.91703	0.99784
3059.05945	0.99844
3055.20187	1.00091
3051.34430	1.00287
3047.48672	1.00134
3043.62914	1.00010
3039.77156	1.00007
3035.91398	0.99946
3032.05641	0.99939
3028.19883	1.00010
3024.34125	0.99976
3020.48367	0.99755
3016.62609	0.99695
3012.76852	0.99858
3008.91094	0.99879
3005.05336	0.99829
3001.19578	0.99801
2997.33820	0.99795
2993.48062	0.99930
2989.62305	1.00032
2985.76547	0.99985
2981.90789	0.99953
2978.05031	1.00038
2974.19273	1.00219
2970.33516	1.00177
2966.47758	0.99920
2962.62000	0.99996
2958.76242	1.00185
2954.90484	1.00081
2951.04727	0.99970
2947.18969	0.99900
2943.33211	0.99931
2939.47453	1.00176
2935.61695	1.00235
2931.75937	1.00072
2927.90180	1.00048
2924.04422	1.00025
2920.18664	0.99874
2916.32906	0.99873
2912.47148	1.00016
2908.61391	1.00072
2904.75633	1.00106
2900.89875	1.00125
2897.04117	1.00030
2893.18359	1.00021
2889.32602	1.00109
2885.46844	1.00042
2881.61086	0.99987
2877.75328	1.00027
2873.89570	0.99932
2870.03812	0.99770
2866.18055	0.99705
2862.32297	0.99865
2858.46539	1.00141
2854.60781	1.00199
2850.75023	1.00047
2846.89266	0.99861
2843.03508	0.99808
2839.17750	0.99885
2835.31992	0.99912
2831.46234	0.99911
2827.60477	0.99922
2823.74719	0.99992
2819.88961	1.00071
2816.03203	0.99963
2812.17445	0.99895
2808.31687	1.00087
2804.45930	1.00202
2800.60172	1.00052
2796.74414	0.99898
2792.88656	0.99803
2789.02898	0.99745
2785.17141	0.99889
2781.31383	1.00061
2777.45625	1.00079
2773.59867	1.00035
2769.74109	0.99973
2765.88352	0.99970
2762.02594	0.99933
2758.16836	0.99836
2754.31078	0.99861
2750.45320	0.99930
2746.59562	0.99974
2742.73805	0.99977
2738.88047	0.99838
2735.02289	0.99774
2731.16531	0.99959
2727.30773	1.00029
2723.45016	0.99929
2719.59258	1.00008
2715.73500	1.00105
2711.87742	1.00061
2708.01984	0.99973
2704.16227	0.99860
2700.30469	0.99876
2696.44711	0.99989
2692.58953	1.00040
2688.73195	1.00034
2684.87437	0.99980
2681.01680	0.99955
2677.15922	0.99972
2673.30164	0.99993
2669.44406	1.00022
2665.58648	1.00003
2661.72891	0.99969
2657.87133	1.00034
2654.01375	1.00086
2650.15617	0.99969
2646.29859	0.99868
2642.44102	0.99900
2638.58344	0.99920
2634.72586	0.99901
2630.86828	0.99910
2627.01070	0.99909
2623.15312	0.99916
2619.29555	1.00007
2615.43797	0.99967
2611.58039	0.99836
2607.72281	0.99929
2603.86523	1.00016
2600.00766	0.99975
2596.15008	1.00004
2592.29250	1.00039
2588.43492	1.00004
2584.57734	0.99956
2580.71977	0.99918
2576.86219	0.99861
2573.00461	0.99874
2569.14703	0.99968
2565.28945	1.00028
2561.43187	1.00072
2557.57430	1.00065
2553.71672	1.00045
2549.85914	1.00038
2546.00156	0.99943
2542.14398	0.99902
2538.28641	0.99989
2534.42883	1.00039
2530.57125	1.00043
2526.71367	1.00055
2522.85609	1.00022
2518.99852	0.99949
2515.14094	0.99956
2511.28336	1.00005
2507.42578	0.99930
2503.56820	0.99898
2499.71062	1.00074
2495.85305	1.00140
2491.99547	1.00016
2488.13789	0.99973
2484.28031	1.00017
2480.42273	1.00034
2476.56516	0.99990
2472.70758	0.99976
2468.85000	0.99983
2464.99242	0.99921
2461.13484	0.99931
2457.27727	0.99997
2453.41969	0.99994
2449.56211	0.99976
2445.70453	0.99967
2441.84695	1.00007
2437.98937	1.00087
2434.13180	1.00102
2430.27422	1.00066
2426.41664	1.00022
2422.55906	0.99992
2418.70148	0.99998
2414.84391	0.99999
2410.98633	1.00053
2407.12875	1.00112
2403.27117	1.00044
2399.41359	1.00050
2395.55602	1.00116
2391.69844	1.00043
2387.84086	1.00004
2383.98328	1.00049
2380.12570	1.00056
2376.26812	0.99963
2372.41055	0.99753
2368.55297	0.99742
2364.69539	0.99534
2360.83781	0.98771
2356.98023	0.99057
2353.12266	0.99874
2349.26508	1.00058
2345.40750	0.99985
2341.54992	0.99941
2337.69234	0.99881
2333.83477	0.99655
2329.97719	0.99682
2326.11961	0.99867
2322.26203	0.99980
2318.40445	1.00042
2314.54687	0.99988
2310.68930	1.00003
2306.83172	1.00043
2302.97414	1.00015
2299.11656	1.00041
2295.25898	1.00036
2291.40141	0.99986
2287.54383	1.00004
2283.68625	1.00039
2279.82867	1.00023
2275.97109	0.99983
2272.11352	0.99995
2268.25594	0.99999
2264.39836	0.99954
2260.54078	0.99961
2256.68320	0.99963
2252.82562	0.99935
2248.96805	0.99963
2245.11047	0.99960
2241.25289	0.99968
2237.39531	1.00054
2233.53773	1.00027
2229.68016	0.99898
2225.82258	0.99878
2221.96500	0.99958
2218.10742	1.00011
2214.24984	1.00003
2210.39227	0.99981
2206.53469	0.99959
2202.67711	0.99946
2198.81953	0.99966
2194.96195	0.99967
2191.10437	0.99928
2187.24680	0.99920
2183.38922	0.99982
2179.53164	1.00068
2175.67406	1.00128
2171.81648	1.00134
2167.95891	1.00068
2164.10133	1.00008
2160.24375	0.99993
2156.38617	0.99982
2152.52859	0.99976
2148.67102	0.99947
2144.81344	0.99949
2140.95586	1.00045
2137.09828	1.00100
2133.24070	1.00034
2129.38312	0.99923
2125.52555	0.99894
2121.66797	0.99958
2117.81039	0.99977
2113.95281	0.99995
2110.09523	1.00030
2106.23766	1.00014
2102.38008	1.00055
2098.52250	1.00098
2094.66492	1.00020
2090.80734	0.99970
2086.94977	0.99993
2083.09219	0.99992
2079.23461	1.00001
2075.37703	1.00032
2071.51945	1.00041
2067.66187	1.00012
2063.80430	0.99967
2059.94672	0.99979
2056.08914	1.00020
2052.23156	1.00041
2048.37398	1.00049
2044.51641	0.99988
2040.65883	0.99932
2036.80125	0.99966
2032.94367	0.99986
2029.08609	0.99961
2025.22852	0.99977
2021.37094	1.00022
2017.51336	0.99991
2013.65578	0.99976
2009.79820	1.00052
2005.94062	1.00114
2002.08305	1.00125
1998.22547	1.00045
1994.36789	0.99970
1990.51031	1.00008
1986.65273	0.99984
1982.79516	0.99929
1978.93758	0.99954
1975.08000	0.99968
1971.22242	0.99961
1967.36484	0.99969
1963.50727	0.99940
1959.64969	0.99924
1955.79211	0.99973
1951.93453	0.99982
1948.07695	0.99969
1944.21937	1.00004
1940.36180	0.99973
1936.50422	0.99904
1932.64664	0.99916
1928.78906	0.99983
1924.93148	1.00012
1921.07391	0.99953
1917.21633	0.99902
1913.35875	0.99942
1909.50117	1.00011
1905.64359	1.00045
1901.78602	1.00044
1897.92844	1.00014
1894.07086	0.99959
1890.21328	0.99914
1886.35570	0.99912
1882.49812	0.99966
1878.64055	1.00003
1874.78297	0.99982
1870.92539	0.99985
1867.06781	1.00018
1863.21023	1.00016
1859.35266	0.99996
1855.49508	0.99953
1851.63750	0.99908
1847.77992	0.99941
1843.92234	1.00075
1840.06477	1.00090
1836.20719	0.99999
1832.34961	0.99965
1828.49203	0.99977
1824.63445	0.99987
1820.77687	0.99974
1816.91930	0.99951
1813.06172	1.00005
1809.20414	1.00048
1805.34656	0.99980
1801.48898	0.99975
1797.63141	1.00067
1793.77383	1.00075
1789.91625	1.00045
1786.05867	1.00054
1782.20109	1.00041
1778.34352	1.00015
1774.48594	0.99983
1770.62836	0.99951
1766.77078	0.99937
1762.91320	0.99921
1759.05562	0.99929
1755.19805	0.99895
1751.34047	0.99829
1747.48289	0.99880
1743.62531	0.99985
1739.76773	1.00001
1735.91016	0.99947
1732.05258	0.99957
1728.19500	0.99979
1724.33742	0.99972
1720.47984	1.00027
1716.62227	1.00088
1712.76469	1.00081
1708.90711	1.00091
1705.04953	1.00050
1701.19195	1.00070
1697.33437	1.00135
1693.47680	0.99992
1689.61922	0.99894
1685.76164	0.99863
1681.90406	0.99930
1678.04648	1.00008
1674.18891	0.99984
1670.33133	0.99948
1666.47375	1.00014
1662.61617	1.00040
1658.75859	0.99995
1654.90102	0.99922
1651.04344	0.99912
1647.18586	1.00012
1643.32828	1.00024
1639.47070	0.99955
1635.61312	0.99912
1631.75555	0.99961
1627.89797	0.99991
1624.04039	1.00002
1620.18281	1.00001
1616.32523	0.99999
1612.46766	1.00026
1608.61008	1.00029
1604.75250	0.99986
1600.89492	0.99961
1597.03734	0.99947
1593.17977	0.99941
1589.32219	0.99976
1585.46461	0.99994
1581.60703	0.99995
1577.74945	1.00005
1573.89187	1.00009
1570.03430	1.00046
1566.17672	1.00050
1562.31914	0.99944
1558.46156	0.99845
1554.60398	0.99987
1550.74641	1.00068
1546.88883	1.00081
1543.03125	1.00099
1539.17367	1.00075
1535.31609	1.00037
1531.45852	1.00031
1527.60094	1.00051
1523.74336	1.00030
1519.88578	0.99842
1516.02820	0.99816
1512.17062	0.99877
1508.31305	0.99893
1504.45547	0.99988
1500.59789	0.99996
1496.74031	0.99961
1492.88273	1.00030
1489.02516	1.00101
1485.16758	1.00055
1481.31000	1.00019
1477.45242	1.00028
1473.59484	0.99947
1469.73727	0.99878
1465.87969	0.99969
1462.02211	1.00068
1458.16453	1.00065
1454.30695	0.99970
1450.44937	0.99959
1446.59180	0.99997
1442.73422	0.99996
1438.87664	0.99988
1435.01906	1.00021
1431.16148	0.99996
1427.30391	0.99932
1423.44633	0.99954
1419.58875	1.00017
1415.73117	1.00032
1411.87359	1.00033
1408.01602	0.99991
1404.15844	0.99910
1400.30086	0.99840
1396.44328	0.99864
1392.58570	0.99983
1388.72812	1.00062
1384.87055	1.00087
1381.01297	1.00027
1377.15539	0.99975
1373.29781	1.00028
1369.44023	1.00072
1365.58266	1.00069
1361.72508	1.00047
1357.86750	1.00015
1354.00992	0.99992
1350.15234	0.99949
1346.29477	0.99917
1342.43719	0.99953
1338.57961	1.00023
1334.72203	1.00039
1330.86445	1.00005
1327.00687	0.99973
1323.14930	0.99959
1319.29172	0.99931
1315.43414	0.99933
1311.57656	0.99983
1307.71898	1.00012
1303.86141	1.00030
1300.00383	1.00050
1296.14625	1.00067
1292.28867	1.00048
1288.43109	0.99934
1284.57352	0.99866
1280.71594	0.99942
1276.85836	1.00020
1273.00078	1.00038
1269.14320	1.00022
1265.28562	0.99965
1261.42805	0.99940
1257.57047	0.99986
1253.71289	1.00012
1249.85531	1.00000
1245.99773	0.99983
1242.14016	0.99940
1238.28258	0.99925
1234.42500	0.99986
1230.56742	1.00017
1226.70984	0.99985
1222.85227	0.99955
1218.99469	0.99947
1215.13711	0.99964
1211.27953	0.99986
1207.42195	0.99997
1203.56437	0.99985
1199.70680	0.99940
1195.84922	0.99934
1191.99164	0.99982
1188.13406	1.00019
1184.27648	1.00037
1180.41891	1.00005
1176.56133	0.99979
1172.70375	1.00037
1168.84617	1.00020
1164.98859	0.99928
1161.13102	0.99966
1157.27344	1.00020
1153.41586	0.99976
1149.55828	0.99994
1145.70070	1.00022
1141.84312	0.99955
1137.98555	0.99945
1134.12797	0.99990
1130.27039	0.99996
1126.41281	1.00006
1122.55523	0.99995
1118.69766	1.00003
1114.84008	1.00046
1110.98250	1.00012
1107.12492	0.99970
1103.26734	1.00023
1099.40977	1.00068
1095.55219	1.00022
1091.69461	0.99985
1087.83703	1.00001
1083.97945	0.99993
1080.12187	0.99988
1076.26430	1.00008
1072.40672	1.00008
1068.54914	0.99983
1064.69156	0.99933
1060.83398	0.99894
1056.97641	0.99957
1053.11883	1.00067
1049.26125	1.00054
1045.40367	0.99975
1041.54609	0.99946
1037.68852	0.99930
1033.83094	0.99961
1029.97336	1.00022
1026.11578	1.00070
1022.25820	1.00116
1018.40062	1.00113
1014.54305	1.00083
1010.68547	1.00038
1006.82789	0.99985
1002.97031	0.99996
999.11273	1.00041
995.25516	1.00072
991.39758	1.00072
987.54000	1.00001
983.68242	0.99897
979.82484	0.99888
975.96727	0.99955
972.10969	1.00000
968.25211	1.00087
964.39453	1.00105
960.53695	0.99985
956.67937	0.99965
952.82180	1.00025
948.96422	1.00019
945.10664	0.99968
941.24906	0.99925
937.39148	1.00012
933.53391	1.00087
929.67633	1.00036
925.81875	1.00079
921.96117	1.00095
918.10359	0.99964
914.24602	0.99903
910.38844	0.99909
906.53086	0.99945
902.67328	1.00019
898.81570	1.00088
894.95812	1.00129
891.10055	1.00033
887.24297	0.99961
883.38539	1.00012
879.52781	1.00023
875.67023	1.00040
871.81266	0.99989
867.95508	0.99960
864.09750	1.00115
860.23992	1.00111
856.38234	1.00005
852.52477	1.00050
848.66719	1.00080
844.80961	1.00085
840.95203	1.00123
837.09445	1.00170
833.23687	1.00161
829.37930	1.00041
825.52172	0.99944
821.66414	0.99925
817.80656	0.99957
813.94898	1.00101
810.09141	1.00265
806.23383	1.00185
802.37625	0.99921
798.51867	0.99793
794.66109	0.99857
790.80352	1.00025
786.94594	1.00111
783.08836	0.99994
779.23078	0.99947
775.37320	1.00015
771.51562	0.99966
767.65805	0.99888
763.80047	0.99990
759.94289	1.00150
756.08531	1.00067
752.22773	0.99878
748.37016	0.99808
744.51258	0.99794
740.65500	0.99821
736.79742	0.99800
732.93984	0.99871
729.08227	1.00083
725.22469	1.00044
721.36711	0.99978
717.50953	1.00108
713.65195	1.00038
709.79437	0.99866
705.93680	0.99921
702.07922	1.00110
698.22164	1.00141
694.36406	1.00013
690.50648	0.99961
686.64891	1.00001
682.79133	1.00123
678.93375	1.00205
675.07617	1.00061
671.21859	1.00015
667.36102	1.00363
663.50344	1.00427
659.64586	1.00199
655.78828	1.00212
651.93070	1.00288
648.07312	1.00042
644.21555	0.99759
640.35797	0.99582
636.50039	0.99655
632.64281	0.99948
628.78523	1.00039
624.92766	1.00218
621.07008	1.00451
617.21250	1.00093
613.35492	0.99714
609.49734	0.99771
605.63977	0.99800
601.78219	0.99834
597.92461	1.00121
594.06703	1.00591
590.20945	1.00566
586.35187	0.99925
582.49430	0.99733
578.63672	1.00141
574.77914	1.00266
570.92156	1.00132
567.06398	1.00288
563.20641	1.00253
559.34883	0.99699
555.49125	0.99681
551.63367	1.00187
547.77609	1.00198
543.91852	1.00170
540.06094	1.00229
536.20336	0.99985
532.34578	0.99882
528.48820	0.99871
524.63062	0.99898
520.77305	1.00065
516.91547	1.00097
513.05789	1.00132
509.20031	1.00246
505.34273	1.00326
501.48516	1.00250
497.62758	0.99802
493.77000	0.99570
489.91242	0.99903
486.05484	0.99792
482.19727	0.99916
478.33969	1.00883
474.48211	1.00894
470.62453	0.99894
466.76695	0.99692
462.90937	1.00646
459.05180	1.01203
455.19422	0.99937
451.33664	0.98830
447.47906	0.98843
443.62148	1.00332
439.76391	1.01086
435.90633	1.00767
432.04875	1.00745
428.19117	1.00338
424.33359	1.01347
420.47602	1.03850
416.61844	1.06458
412.76086	1.01781
408.90328	0.95895
405.04570	0.85416
401.18812	0.55624
397.33055	0.56903
393.47297	1.39449
389.61539	1.59476
385.75781	1.04145
381.90023	1.01674
378.04266	0.99642
374.18508	0.92712
370.32750	0.88407
366.46992	0.85031
362.61234	0.81620
358.75477	0.72396
354.89719	0.98044
351.03961	1.64607
347.18203	1.45712
343.32445	1.24421
339.46687	0.96353
335.60930	0.52912
331.75172	0.59866
327.89414	0.47329
324.03656	0.37064
320.17898	2.12131
316.32141	2.59491
312.46383	-36.42118
308.60625	-36.42118
304.74867	-36.42118
300.89109	-36.42118
