8000.61703	0.14731
7996.75945	0.64890
7992.90187	1.27376
7989.04430	0.90713
7985.18672	0.54690
7981.32914	0.62606
7977.47156	1.29813
7973.61398	5.49344
7969.75641	1.77880
7965.89883	0.86302
7962.04125	0.87671
7958.18367	1.25620
7954.32609	2.93672
7950.46852	1.26672
7946.61094	0.75853
7942.75336	0.80936
7938.89578	0.88070
7935.03820	0.84649
7931.18062	1.35503
7927.32305	4.60025
7923.46547	3.61748
7919.60789	2.08632
7915.75031	1.71995
7911.89273	1.09423
7908.03516	0.88568
7904.17758	0.70113
7900.32000	0.06393
7896.46242	0.06393
7892.60484	1.93835
7888.74727	0.39744
7884.88969	-0.19946
7881.03211	0.23164
7877.17453	1.67622
7873.31695	0.96363
7869.45937	0.63740
7865.60180	1.48567
7861.74422	1.79722
7857.88664	1.14981
7854.02906	1.44216
7850.17148	1.44216
7846.31391	2.21074
7842.45633	1.10614
7838.59875	1.30347
7834.74117	1.17012
7830.88359	1.02801
7827.02602	1.23025
7823.16844	1.50024
7819.31086	1.52348
7815.45328	1.38442
7811.59570	1.48573
7807.73812	1.76633
7803.88055	1.87869
7800.02297	1.63994
7796.16539	0.57648
7792.30781	0.56445
7788.45023	1.24989
7784.59266	1.19346
7780.73508	1.00012
7776.87750	0.99906
7773.01992	0.32014
7769.16234	0.32636
7765.30477	0.77874
7761.44719	0.91068
7757.58961	0.82254
7753.73203	0.83432
7749.87445	1.05518
7746.01687	1.31926
7742.15930	1.38577
7738.30172	1.12044
7734.44414	0.75541
7730.58656	0.59164
7726.72898	0.66483
7722.87141	0.96591
7719.01383	1.77715
7715.15625	2.27775
7711.29867	1.48756
7707.44109	1.15527
7703.58352	1.48822
7699.72594	1.37546
7695.86836	0.91866
7692.01078	0.86596
7688.15320	0.90184
7684.29562	0.81472
7680.43805	0.83316
7676.58047	0.93027
7672.72289	1.17372
7668.86531	1.42476
7665.00773	1.32785
7661.15016	1.14680
7657.29258	0.88444
7653.43500	0.81409
7649.57742	1.01465
7645.71984	1.08977
7641.86227	1.15764
7638.00469	1.40720
7634.14711	1.40339
7630.28953	1.22793
7626.43195	1.17195
7622.57437	1.04531
7618.71680	1.13491
7614.85922	1.38332
7611.00164	1.23522
7607.14406	0.90670
7603.28648	0.92454
7599.42891	1.05963
7595.57133	0.90560
7591.71375	0.62832
7587.85617	0.66774
7583.99859	1.06345
7580.14102	1.31221
7576.28344	1.21362
7572.42586	1.15363
7568.56828	1.09764
7564.71070	0.88098
7560.85312	0.78582
7556.99555	0.96241
7553.13797	1.17490
7549.28039	1.14275
7545.42281	1.12679
7541.56523	1.07806
7537.70766	0.98123
7533.85008	0.87075
7529.99250	0.79672
7526.13492	0.84798
7522.27734	0.88318
7518.41977	0.95693
7514.56219	1.22342
7510.70461	1.32069
7506.84703	1.10605
7502.98945	0.94124
7499.13187	1.00171
7495.27430	1.32068
7491.41672	1.21807
7487.55914	1.00013
7483.70156	1.13618
7479.84398	1.21286
7475.98641	1.01084
7472.12883	0.89650
7468.27125	0.98689
7464.41367	1.12653
7460.55609	1.04812
7456.69852	0.91616
7452.84094	0.82150
7448.98336	0.87310
7445.12578	1.06705
7441.26820	1.04790
7437.41062	0.92041
7433.55305	0.92107
7429.69547	1.01402
7425.83789	1.00992
7421.98031	1.03097
7418.12273	1.17544
7414.26516	1.09444
7410.40758	0.96892
7406.55000	1.09091
7402.69242	1.14089
7398.83484	1.06525
7394.97727	1.08817
7391.11969	1.01781
7387.26211	0.92389
7383.40453	1.03956
7379.54695	1.14593
7375.68937	1.01676
7371.83180	0.97323
7367.97422	1.07472
7364.11664	0.97592
7360.25906	0.74872
7356.40148	0.73880
7352.54391	0.89589
7348.68633	0.96561
7344.82875	0.92055
7340.97117	0.97573
7337.11359	1.03073
7333.25602	1.05773
7329.39844	1.11524
7325.54086	0.99588
7321.68328	0.83415
7317.82570	0.77591
7313.96812	0.77969
7310.11055	0.89321
7306.25297	0.93437
7302.39539	0.89895
7298.53781	0.98294
7294.68023	1.06790
7290.82266	1.10090
7286.96508	1.03715
7283.10750	0.91500
7279.24992	0.93090
7275.39234	0.93993
7271.53477	0.88361
7267.67719	0.92895
7263.81961	0.97525
7259.96203	0.99720
7256.10445	0.96027
7252.24687	0.82948
7248.38930	0.75737
7244.53172	0.80939
7240.67414	0.98257
7236.81656	1.04426
7232.95898	1.00157
7229.10141	1.06489
7225.24383	1.12023
7221.38625	1.04508
7217.52867	0.99059
7213.67109	0.98837
7209.81352	0.98290
7205.95594	1.05599
7202.09836	1.12810
7198.24078	1.03148
7194.38320	0.95125
7190.52562	1.03762
7186.66805	1.10939
7182.81047	1.06767
7178.95289	1.09785
7175.09531	1.11795
7171.23773	0.98947
7167.38016	0.93256
7163.52258	1.00577
7159.66500	1.05608
7155.80742	1.04758
7151.94984	1.00468
7148.09227	1.01556
7144.23469	1.16952
7140.37711	1.21654
7136.51953	1.12731
7132.66195	1.12799
7128.80437	1.08843
7124.94680	1.01079
7121.08922	1.05619
7117.23164	1.13286
7113.37406	1.13546
7109.51648	1.12493
7105.65891	1.07272
7101.80133	1.03051
7097.94375	1.04273
7094.08617	1.04829
7090.22859	1.02053
7086.37102	0.98623
7082.51344	1.01356
7078.65586	1.03045
7074.79828	0.94908
7070.94070	0.94484
7067.08312	1.01469
7063.22555	1.06390
7059.36797	1.08020
7055.51039	1.02026
7051.65281	1.01768
7047.79523	1.08055
7043.93766	1.06573
7040.08008	0.98147
7036.22250	0.91240
7032.36492	0.95941
7028.50734	1.02648
7024.64977	1.00391
7020.79219	0.97476
7016.93461	0.96226
7013.07703	0.98288
7009.21945	0.99082
7005.36187	1.02035
7001.50430	1.06263
6997.64672	0.99925
6993.78914	0.98993
6989.93156	1.04106
6986.07398	1.02526
6982.21641	0.97828
6978.35883	0.94360
6974.50125	0.96593
6970.64367	1.01955
6966.78609	1.01239
6962.92852	0.95547
6959.07094	0.92785
6955.21336	0.95290
6951.35578	1.00788
6947.49820	1.02743
6943.64062	0.99813
6939.78305	1.00558
6935.92547	1.01029
6932.06789	0.96641
6928.21031	0.95875
6924.35273	0.98233
6920.49516	1.01297
6916.63758	1.04586
6912.78000	1.08502
6908.92242	1.11376
6905.06484	1.04114
6901.20727	0.97336
6897.34969	0.99907
6893.49211	1.05025
6889.63453	1.05856
6885.77695	0.99071
6881.91937	0.96650
6878.06180	1.02665
6874.20422	1.01633
6870.34664	0.97617
6866.48906	0.97161
6862.63148	0.97202
6858.77391	1.00048
6854.91633	1.04003
6851.05875	1.07970
6847.20117	1.06588
6843.34359	0.99759
6839.48602	0.97164
6835.62844	0.96720
6831.77086	0.97971
6827.91328	0.99248
6824.05570	0.96266
6820.19812	0.98861
6816.34055	1.04042
6812.48297	1.00942
6808.62539	1.00593
6804.76781	1.01336
6800.91023	0.95047
6797.05266	0.94850
6793.19508	1.01246
6789.33750	0.99408
6785.47992	0.95709
6781.62234	0.97967
6777.76477	0.98673
6773.90719	0.97032
6770.04961	0.99525
6766.19203	1.03392
6762.33445	1.03506
6758.47687	1.01002
6754.61930	0.96878
6750.76172	0.96043
6746.90414	0.98309
6743.04656	0.97869
6739.18898	1.00798
6735.33141	1.05749
6731.47383	1.02084
6727.61625	0.98095
6723.75867	0.99724
6719.90109	1.02974
6716.04352	1.02092
6712.18594	0.96868
6708.32836	0.97813
6704.47078	1.03112
6700.61320	1.03967
6696.75562	1.04823
6692.89805	1.06903
6689.04047	1.05545
6685.18289	1.01372
6681.32531	0.99332
6677.46773	1.01315
6673.61016	1.02760
6669.75258	1.01371
6665.89500	1.01980
6662.03742	1.05472
6658.17984	1.06365
6654.32227	1.05130
6650.46469	1.05549
6646.60711	1.03985
6642.74953	0.99105
6638.89195	0.96410
6635.03437	0.97707
6631.17680	0.99334
6627.31922	0.99922
6623.46164	0.99981
6619.60406	0.98677
6615.74648	0.96956
6611.88891	0.95264
6608.03133	0.96612
6604.17375	1.00344
6600.31617	0.98377
6596.45859	0.95599
6592.60102	0.97819
6588.74344	1.00634
6584.88586	1.05463
6581.02828	1.08488
6577.17070	1.04442
6573.31312	0.99233
6569.45555	0.96764
6565.59797	0.98267
6561.74039	0.99682
6557.88281	0.97843
6554.02523	0.97503
6550.16766	0.99141
6546.31008	1.00185
6542.45250	0.98567
6538.59492	0.95258
6534.73734	0.95477
6530.87977	1.01312
6527.02219	1.04966
6523.16461	1.00476
6519.30703	0.98796
6515.44945	1.02270
6511.59187	1.00152
6507.73430	0.95214
6503.87672	0.93483
6500.01914	0.95623
6496.16156	0.98989
6492.30398	0.98809
6488.44641	0.96444
6484.58883	0.96652
6480.73125	1.00807
6476.87367	1.03019
6473.01609	1.02395
6469.15852	1.04465
6465.30094	1.04007
6461.44336	1.01395
6457.58578	1.01555
6453.72820	0.99174
6449.87062	0.96430
6446.01305	0.98959
6442.15547	1.03720
6438.29789	1.05605
6434.44031	1.03653
6430.58273	1.01839
6426.72516	1.01558
6422.86758	0.99582
6419.01000	0.96907
6415.15242	0.98017
6411.29484	1.02021
6407.43727	1.02818
6403.57969	0.99714
6399.72211	0.97365
6395.86453	0.98212
6392.00695	1.01528
6388.14937	1.04437
6384.29180	1.05155
6380.43422	1.01608
6376.57664	0.97170
6372.71906	0.96066
6368.86148	0.95281
6365.00391	0.96616
6361.14633	1.00623
6357.28875	1.02061
6353.43117	1.01715
6349.57359	0.99655
6345.71602	0.96865
6341.85844	0.96352
6338.00086	0.97618
6334.14328	1.01200
6330.28570	1.02581
6326.42812	1.00006
6322.57055	0.99822
6318.71297	1.00912
6314.85539	1.01071
6310.99781	1.00741
6307.14023	1.00265
6303.28266	1.00376
6299.42508	1.00340
6295.56750	1.01462
6291.70992	1.02022
6287.85234	1.00208
6283.99477	0.99555
6280.13719	0.99523
6276.27961	0.99561
6272.42203	1.00693
6268.56445	1.00421
6264.70687	0.99177
6260.84930	0.99422
6256.99172	0.99783
6253.13414	0.98716
6249.27656	0.98730
6245.41898	1.00781
6241.56141	1.02605
6237.70383	1.03054
6233.84625	1.01695
6229.98867	1.01179
6226.13109	1.02318
6222.27352	1.01538
6218.41594	1.00466
6214.55836	0.99915
6210.70078	0.98659
6206.84320	0.98908
6202.98562	1.00010
6199.12805	1.00599
6195.27047	0.99934
6191.41289	0.97799
6187.55531	0.97591
6183.69773	0.98983
6179.84016	0.98512
6175.98258	0.97921
6172.12500	1.00136
6168.26742	1.03005
6164.40984	1.03346
6160.55227	1.02372
6156.69469	1.02007
6152.83711	1.01752
6148.97953	0.99989
6145.12195	0.97733
6141.26437	0.97574
6137.40680	0.99700
6133.54922	1.01114
6129.69164	1.00419
6125.83406	1.01772
6121.97648	1.03431
6118.11891	1.00687
6114.26133	0.98312
6110.40375	0.98099
6106.54617	0.99047
6102.68859	1.00683
6098.83102	0.99867
6094.97344	0.99719
6091.11586	1.01053
6087.25828	0.99232
6083.40070	0.97641
6079.54312	0.98832
6075.68555	1.00157
6071.82797	1.01113
6067.97039	1.00600
6064.11281	0.99551
6060.25523	1.00350
6056.39766	1.00549
6052.54008	0.98538
6048.68250	0.97090
6044.82492	0.97932
6040.96734	0.99453
6037.10977	1.00392
6033.25219	1.00463
6029.39461	0.99173
6025.53703	0.98464
6021.67945	0.99321
6017.82187	1.00791
6013.96430	1.01479
6010.10672	1.00053
6006.24914	0.99394
6002.39156	1.01157
5998.53398	1.02098
5994.67641	1.00123
5990.81883	0.98274
5986.96125	0.99222
5983.10367	0.99701
5979.24609	0.98850
5975.38852	0.98646
5971.53094	0.98076
5967.67336	0.97660
5963.81578	0.97601
5959.95820	0.97687
5956.10062	0.98661
5952.24305	0.99411
5948.38547	0.99407
5944.52789	0.98490
5940.67031	0.97721
5936.81273	0.99628
5932.95516	1.01721
5929.09758	1.01145
5925.24000	1.00594
5921.38242	1.00293
5917.52484	0.99618
5913.66727	1.00095
5909.80969	1.00177
5905.95211	0.99318
5902.09453	0.99758
5898.23695	1.01425
5894.37937	1.01497
5890.52180	0.99731
5886.66422	0.99652
5882.80664	1.00742
5878.94906	1.00858
5875.09148	1.00294
5871.23391	0.99456
5867.37633	0.99442
5863.51875	0.99089
5859.66117	0.98160
5855.80359	0.98946
5851.94602	0.99940
5848.08844	0.99754
5844.23086	1.00034
5840.37328	1.01132
5836.51570	1.01446
5832.65812	1.00833
5828.80055	1.00051
5824.94297	0.98826
5821.08539	0.98625
5817.22781	0.99320
5813.37023	0.98812
5809.51266	0.98594
5805.65508	1.00288
5801.79750	1.01782
5797.93992	1.00807
5794.08234	0.99069
5790.22477	0.98391
5786.36719	0.97700
5782.50961	0.97863
5778.65203	0.99099
5774.79445	0.98844
5770.93687	0.99101
5767.07930	1.01328
5763.22172	1.01988
5759.36414	1.01833
5755.50656	1.01773
5751.64898	0.99669
5747.79141	0.98405
5743.93383	0.99971
5740.07625	1.00631
5736.21867	0.99636
5732.36109	0.99969
5728.50352	1.00586
5724.64594	1.00314
5720.78836	1.00883
5716.93078	1.00938
5713.07320	0.99885
5709.21562	0.99904
5705.35805	1.00730
5701.50047	1.01230
5697.64289	1.00873
5693.78531	0.99513
5689.92773	0.98740
5686.07016	1.00079
5682.21258	1.01360
5678.35500	1.00880
5674.49742	1.00526
5670.63984	0.99892
5666.78227	0.99289
5662.92469	0.99954
5659.06711	0.99511
5655.20953	0.98825
5651.35195	0.99139
5647.49437	0.98836
5643.63680	0.99115
5639.77922	0.99913
5635.92164	0.99746
5632.06406	0.99133
5628.20648	0.98854
5624.34891	0.99935
5620.49133	1.01146
5616.63375	1.00679
5612.77617	1.00048
5608.91859	0.99539
5605.06102	0.98916
5601.20344	0.99941
5597.34586	1.01230
5593.48828	1.00821
5589.63070	1.01061
5585.77312	1.01804
5581.91555	1.01208
5578.05797	1.00463
5574.20039	1.00104
5570.34281	1.00213
5566.48523	1.00371
5562.62766	0.99434
5558.77008	0.98434
5554.91250	0.98540
5551.05492	0.99168
5547.19734	0.99239
5543.33977	0.99245
5539.48219	1.00105
5535.62461	1.00827
5531.76703	0.99954
5527.90945	0.98216
5524.05187	0.98319
5520.19430	0.99584
5516.33672	0.99407
5512.47914	0.99468
5508.62156	1.00128
5504.76398	0.99879
5500.90641	0.99865
5497.04883	1.00475
5493.19125	1.00991
5489.33367	1.01243
5485.47609	1.00563
5481.61852	0.99709
5477.76094	1.00388
5473.90336	1.00868
5470.04578	0.99692
5466.18820	0.98841
5462.33062	0.99459
5458.47305	1.01439
5454.61547	1.01821
5450.75789	1.00248
5446.90031	1.00113
5443.04273	1.00275
5439.18516	0.99326
5435.32758	0.99609
5431.47000	1.00546
5427.61242	1.00221
5423.75484	0.99682
5419.89727	1.00176
5416.03969	1.01219
5412.18211	1.01772
5408.32453	1.01917
5404.46695	1.01860
5400.60937	1.01136
5396.75180	1.00717
5392.89422	1.00602
5389.03664	1.00053
5385.17906	1.00271
5381.32148	1.00600
5377.46391	0.99786
5373.60633	0.98732
5369.74875	0.98564
5365.89117	0.98863
5362.03359	0.99339
5358.17602	1.00688
5354.31844	1.01177
5350.46086	0.99926
5346.60328	1.00200
5342.74570	1.01270
5338.88812	1.00605
5335.03055	0.99841
5331.17297	1.00332
5327.31539	0.99716
5323.45781	0.98057
5319.60023	0.98539
5315.74266	0.99985
5311.88508	1.00140
5308.02750	0.99617
5304.16992	0.99556
5300.31234	0.99879
5296.45477	0.99737
5292.59719	0.99607
5288.73961	0.99464
5284.88203	0.99319
5281.02445	0.99785
5277.16687	0.99749
5273.30930	0.99772
5269.45172	1.00599
5265.59414	1.00634
5261.73656	0.99803
5257.87898	0.99121
5254.02141	0.99037
5250.16383	0.99973
5246.30625	1.00613
5242.44867	0.99832
5238.59109	0.99448
5234.73352	1.00683
5230.87594	1.01580
5227.01836	1.00456
5223.16078	0.99380
5219.30320	0.99561
5215.44562	0.99686
5211.58805	0.99752
5207.73047	1.00811
5203.87289	1.01341
5200.01531	1.00659
5196.15773	1.00166
5192.30016	0.99995
5188.44258	0.99937
5184.58500	0.99934
5180.72742	0.99981
5176.86984	1.00048
5173.01227	1.00002
5169.15469	0.99938
5165.29711	0.98924
5161.43953	0.98330
5157.58195	0.99810
5153.72437	1.00619
5149.86680	1.00542
5146.00922	1.00759
5142.15164	0.99960
5138.29406	0.99768
5134.43648	1.01170
5130.57891	1.01818
5126.72133	1.01096
5122.86375	1.00117
5119.00617	0.99583
5115.14859	0.99171
5111.29102	0.98946
5107.43344	0.99601
5103.57586	0.99880
5099.71828	0.99569
5095.86070	1.00108
5092.00312	1.00382
5088.14555	0.99659
5084.28797	0.99162
5080.43039	0.99222
5076.57281	0.99899
5072.71523	1.00937
5068.85766	1.01240
5065.00008	1.00781
5061.14250	1.00623
5057.28492	1.00802
5053.42734	1.00447
5049.56977	0.99927
5045.71219	1.00220
5041.85461	1.00337
5037.99703	0.99637
5034.13945	0.99429
5030.28187	0.99976
5026.42430	1.00562
5022.56672	1.00650
5018.70914	1.00354
5014.85156	1.00322
5010.99398	1.00472
5007.13641	1.00384
5003.27883	0.99844
4999.42125	0.99642
4995.56367	1.00045
4991.70609	1.00073
4987.84852	1.00076
4983.99094	1.00204
4980.13336	1.00195
4976.27578	1.00230
4972.41820	0.99783
4968.56062	0.99308
4964.70305	0.99604
4960.84547	1.00468
4956.98789	1.00849
4953.13031	1.00285
4949.27273	1.00531
4945.41516	1.01290
4941.55758	1.00817
4937.70000	1.00154
4933.84242	0.99801
4929.98484	0.99648
4926.12727	1.00101
4922.26969	1.00639
4918.41211	1.01140
4914.55453	1.01199
4910.69695	1.00735
4906.83937	1.00700
4902.98180	1.00644
4899.12422	1.00409
4895.26664	1.00497
4891.40906	1.00191
4887.55148	0.99813
4883.69391	1.00337
4879.83633	1.00887
4875.97875	1.00618
4872.12117	1.00053
4868.26359	0.99820
4864.40602	1.00126
4860.54844	1.00482
4856.69086	1.00408
4852.83328	1.00260
4848.97570	1.00001
4845.11812	0.99619
4841.26055	0.99719
4837.40297	0.99760
4833.54539	0.99536
4829.68781	0.99901
4825.83023	1.00382
4821.97266	1.00458
4818.11508	1.00143
4814.25750	0.99607
4810.39992	0.99616
4806.54234	0.99948
4802.68477	1.00167
4798.82719	1.00232
4794.96961	1.00229
4791.11203	1.00552
4787.25445	1.00527
4783.39687	1.00112
4779.53930	1.00215
4775.68172	1.00200
4771.82414	0.99728
4767.96656	0.99508
4764.10898	0.99621
4760.25141	0.99796
4756.39383	0.99864
4752.53625	1.00112
4748.67867	1.00454
4744.82109	1.00264
4740.96352	1.00118
4737.10594	1.00045
4733.24836	0.99681
4729.39078	0.99728
4725.53320	1.00021
4721.67562	1.00493
4717.81805	1.00486
4713.96047	0.99530
4710.10289	0.99497
4706.24531	1.00110
4702.38773	1.00022
4698.53016	0.99645
4694.67258	0.99456
4690.81500	0.99837
4686.95742	1.00071
4683.09984	1.00102
4679.24227	1.00585
4675.38469	1.00519
4671.52711	0.99774
4667.66953	0.99595
4663.81195	1.00133
4659.95437	1.00435
4656.09680	1.00373
4652.23922	1.00418
4648.38164	1.00257
4644.52406	1.00171
4640.66648	1.00408
4636.80891	1.00249
4632.95133	0.99816
4629.09375	0.99571
4625.23617	0.99289
4621.37859	0.99293
4617.52102	0.99838
4613.66344	1.00081
4609.80586	1.00118
4605.94828	1.00523
4602.09070	1.00454
4598.23312	0.99927
4594.37555	0.99823
4590.51797	0.99982
4586.66039	1.00050
4582.80281	0.99990
4578.94523	1.00259
4575.08766	1.00688
4571.23008	1.00455
4567.37250	1.00272
4563.51492	1.00183
4559.65734	0.99790
4555.79977	0.99942
4551.94219	1.00060
4548.08461	0.99923
4544.22703	1.00162
4540.36945	1.00079
4536.51187	0.99794
4532.65430	0.99813
4528.79672	0.99928
4524.93914	0.99896
4521.08156	0.99860
4517.22398	1.00256
4513.36641	1.00289
4509.50883	0.99860
4505.65125	1.00383
4501.79367	1.01056
4497.93609	1.00426
4494.07852	0.99691
4490.22094	0.99776
4486.36336	0.99824
4482.50578	0.99614
4478.64820	0.99544
4474.79062	0.99571
4470.93305	0.99856
4467.07547	1.00353
4463.21789	1.00308
4459.36031	0.99827
4455.50273	0.99617
4451.64516	0.99433
4447.78758	0.99387
4443.93000	0.99721
4440.07242	0.99782
4436.21484	0.99693
4432.35727	0.99822
4428.49969	0.99889
4424.64211	1.00105
4420.78453	1.00476
4416.92695	1.00153
4413.06937	0.99457
4409.21180	0.99635
4405.35422	1.00129
4401.49664	0.99878
4397.63906	0.99594
4393.78148	0.99998
4389.92391	1.00276
4386.06633	1.00066
4382.20875	1.00291
4378.35117	1.00551
4374.49359	1.00073
4370.63602	0.99547
4366.77844	0.99420
4362.92086	0.99556
4359.06328	0.99687
4355.20570	0.99897
4351.34812	1.00209
4347.49055	1.00094
4343.63297	0.99962
4339.77539	1.00199
4335.91781	1.00261
4332.06023	1.00077
4328.20266	0.99853
4324.34508	0.99580
4320.48750	0.99340
4316.62992	0.99424
4312.77234	0.99636
4308.91477	0.99636
4305.05719	0.99858
4301.19961	1.00193
4297.34203	1.00219
4293.48445	1.00221
4289.62687	1.00146
4285.76930	0.99981
4281.91172	0.99966
4278.05414	0.99948
4274.19656	0.99829
4270.33898	0.99674
4266.48141	0.99737
4262.62383	1.00077
4258.76625	1.00225
4254.90867	0.99985
4251.05109	0.99681
4247.19352	0.99552
4243.33594	0.99587
4239.47836	0.99948
4235.62078	1.00522
4231.76320	1.00613
4227.90562	1.00221
4224.04805	1.00019
4220.19047	1.00009
4216.33289	0.99908
4212.47531	0.99828
4208.61773	0.99852
4204.76016	1.00105
4200.90258	1.00445
4197.04500	1.00346
4193.18742	1.00033
4189.32984	0.99820
4185.47227	0.99624
4181.61469	0.99729
4177.75711	1.00021
4173.89953	0.99963
4170.04195	0.99617
4166.18437	0.99465
4162.32680	0.99621
4158.46922	0.99923
4154.61164	1.00209
4150.75406	1.00230
4146.89648	1.00013
4143.03891	0.99794
4139.18133	0.99753
4135.32375	0.99852
4131.46617	0.99888
4127.60859	0.99857
4123.75102	0.99747
4119.89344	0.99742
4116.03586	0.99943
4112.17828	1.00030
4108.32070	1.00131
4104.46312	1.00186
4100.60555	0.99940
4096.74797	0.99835
4092.89039	0.99816
4089.03281	0.99669
4085.17523	0.99806
4081.31766	0.99923
4077.46008	0.99793
4073.60250	0.99900
4069.74492	1.00072
4065.88734	1.00125
4062.02977	1.00174
4058.17219	1.00133
4054.31461	1.00115
4050.45703	1.00012
4046.59945	0.99766
4042.74187	0.99808
4038.88430	1.00053
4035.02672	1.00067
4031.16914	0.99989
4027.31156	0.99980
4023.45398	0.99900
4019.59641	0.99946
4015.73883	1.00088
4011.88125	1.00040
4008.02367	0.99973
4004.16609	0.99983
4000.30852	1.00031
3996.45094	1.00034
3992.59336	0.99971
3988.73578	1.00027
3984.87820	1.00023
3981.02062	0.99994
3977.16305	1.00083
3973.30547	1.00014
3969.44789	1.00028
3965.59031	1.00249
3961.73273	1.00230
3957.87516	0.99975
3954.01758	0.99846
3950.16000	0.99906
3946.30242	0.99974
3942.44484	1.00077
3938.58727	1.00154
3934.72969	1.00075
3930.87211	1.00077
3927.01453	1.00041
3923.15695	0.99864
3919.29937	0.99832
3915.44180	0.99843
3911.58422	0.99882
3907.72664	0.99811
3903.86906	0.99578
3900.01148	0.99961
3896.15391	1.00185
3892.29633	0.99983
3888.43875	0.99997
3884.58117	1.00028
3880.72359	0.99742
3876.86602	0.99747
3873.00844	1.00064
3869.15086	1.00054
3865.29328	0.99826
3861.43570	0.99981
3857.57812	0.99884
3853.72055	0.99212
3849.86297	0.99592
3846.00539	1.00028
3842.14781	1.00029
3838.29023	1.00023
3834.43266	1.00087
3830.57508	1.00163
3826.71750	1.00345
3822.85992	1.00460
3819.00234	1.00371
3815.14477	1.00140
3811.28719	0.99828
3807.42961	0.99360
3803.57203	0.99489
3799.71445	1.00154
3795.85687	1.00040
3791.99930	1.00074
3788.14172	1.00321
3784.28414	1.00229
3780.42656	1.00066
3776.56898	0.99990
3772.71141	0.99956
3768.85383	0.99934
3764.99625	0.99898
3761.13867	0.99978
3757.28109	1.00103
3753.42352	1.00308
3749.56594	1.00193
3745.70836	0.99664
3741.85078	0.99833
3737.99320	1.00068
3734.13562	0.99690
3730.27805	0.99620
3726.42047	0.99846
3722.56289	0.99942
3718.70531	0.99917
3714.84773	0.99855
3710.99016	1.00024
3707.13258	1.00141
3703.27500	0.99827
3699.41742	0.99674
3695.55984	0.99750
3691.70227	0.99745
3687.84469	0.99995
3683.98711	1.00033
3680.12953	0.99861
3676.27195	0.99713
3672.41437	0.99590
3668.55680	0.99681
3664.69922	0.99883
3660.84164	0.99952
3656.98406	0.99931
3653.12648	1.00060
3649.26891	1.00257
3645.41133	1.00103
3641.55375	1.00109
3637.69617	1.00102
3633.83859	0.99878
3629.98102	0.99861
3626.12344	0.99959
3622.26586	0.99819
3618.40828	0.99914
3614.55070	1.00197
3610.69312	1.00158
3606.83555	0.99928
3602.97797	0.99801
3599.12039	0.99899
3595.26281	1.00016
3591.40523	0.99841
3587.54766	0.99730
3583.69008	0.99902
3579.83250	1.00021
3575.97492	1.00086
3572.11734	1.00061
3568.25977	1.00004
3564.40219	0.99979
3560.54461	0.99903
3556.68703	0.99908
3552.82945	0.99938
3548.97187	0.99994
3545.11430	1.00231
3541.25672	1.00206
3537.39914	0.99864
3533.54156	0.99747
3529.68398	0.99945
3525.82641	0.99982
3521.96883	0.99831
3518.11125	0.99856
3514.25367	0.99996
3510.39609	0.99990
3506.53852	0.99891
3502.68094	0.99938
3498.82336	0.99937
3494.96578	0.99858
3491.10820	0.99891
3487.25062	0.99946
3483.39305	1.00073
3479.53547	1.00206
3475.67789	1.00167
3471.82031	1.00132
3467.96273	1.00135
3464.10516	1.00065
3460.24758	1.00016
3456.39000	1.00068
3452.53242	1.00079
3448.67484	0.99975
3444.81727	0.99928
3440.95969	0.99967
3437.10211	0.99968
3433.24453	0.99985
3429.38695	0.99996
3425.52937	0.99915
3421.67180	0.99898
3417.81422	0.99963
3413.95664	0.99951
3410.09906	0.99988
3406.24148	1.00105
3402.38391	1.00085
3398.52633	0.99910
3394.66875	0.99849
3390.81117	0.99994
3386.95359	1.00028
3383.09602	0.99902
3379.23844	0.99921
3375.38086	1.00023
3371.52328	0.99973
3367.66570	0.99855
3363.80812	0.99858
3359.95055	0.99949
3356.09297	1.00018
3352.23539	1.00032
3348.37781	0.99959
3344.52023	0.99902
3340.66266	0.99968
3336.80508	1.00039
3332.94750	1.00008
3329.08992	0.99950
3325.23234	0.99986
3321.37477	1.00030
3317.51719	0.99962
3313.65961	0.99979
3309.80203	1.00107
3305.94445	1.00115
3302.08687	0.99997
3298.22930	0.99891
3294.37172	0.99918
3290.51414	0.99989
3286.65656	0.99979
3282.79898	0.99980
3278.94141	1.00046
3275.08383	1.00086
3271.22625	1.00032
3267.36867	0.99960
3263.51109	0.99963
3259.65352	0.99984
3255.79594	0.99962
3251.93836	0.99972
3248.08078	1.00006
3244.22320	0.99944
3240.36562	0.99949
3236.50805	1.00077
3232.65047	1.00017
3228.79289	0.99858
3224.93531	0.99929
3221.07773	1.00072
3217.22016	1.00044
3213.36258	1.00001
3209.50500	1.00073
3205.64742	1.00093
3201.78984	0.99983
3197.93227	0.99894
3194.07469	0.99952
3190.21711	1.00044
3186.35953	1.00000
3182.50195	0.99957
3178.64437	1.00050
3174.78680	1.00093
3170.92922	1.00043
3167.07164	1.00016
3163.21406	0.99949
3159.35648	0.99872
3155.49891	0.99889
3151.64133	0.99939
3147.78375	0.99984
3143.92617	1.00011
3140.06859	0.99997
3136.21102	1.00003
3132.35344	1.00033
3128.49586	1.00027
3124.63828	1.00019
3120.78070	1.00030
3116.92312	0.99989
3113.06555	0.99981
3109.20797	1.00079
3105.35039	1.00074
3101.49281	0.99990
3097.63523	1.00006
3093.77766	1.00049
3089.92008	1.00078
3086.06250	1.00026
3082.20492	0.99963
3078.34734	1.00030
3074.48977	1.00019
3070.63219	0.99942
3066.77461	0.99957
3062.91703	0.99950
3059.05945	0.99950
3055.20187	1.00012
3051.34430	1.00029
3047.48672	0.99984
3043.62914	0.99995
3039.77156	1.00034
3035.91398	1.00004
3032.05641	1.00021
3028.19883	1.00039
3024.34125	0.99984
3020.48367	0.99986
3016.62609	0.99982
3012.76852	0.99940
3008.91094	0.99949
3005.05336	0.99972
3001.19578	0.99992
2997.33820	1.00019
2993.48062	1.00034
2989.62305	1.00008
2985.76547	0.99966
2981.90789	0.99954
2978.05031	0.99977
2974.19273	1.00016
2970.33516	1.00005
2966.47758	0.99986
2962.62000	1.00011
2958.76242	0.99979
2954.90484	0.99933
2951.04727	1.00001
2947.18969	1.00043
2943.33211	0.99963
2939.47453	0.99938
2935.61695	1.00007
2931.75937	1.00052
2927.90180	1.00046
2924.04422	0.99982
2920.18664	0.99950
2916.32906	1.00014
2912.47148	1.00029
2908.61391	0.99967
2904.75633	0.99962
2900.89875	0.99993
2897.04117	0.99965
2893.18359	0.99956
2889.32602	1.00048
2885.46844	1.00096
2881.61086	1.00042
2877.75328	1.00041
2873.89570	1.00045
2870.03812	0.99978
2866.18055	0.99984
2862.32297	1.00058
2858.46539	1.00059
2854.60781	1.00004
2850.75023	0.99999
2846.89266	1.00008
2843.03508	0.99964
2839.17750	0.99959
2835.31992	1.00003
2831.46234	1.00014
2827.60477	0.99981
2823.74719	0.99961
2819.88961	1.00017
2816.03203	1.00049
2812.17445	1.00002
2808.31687	0.99980
2804.45930	1.00010
2800.60172	1.00051
2796.74414	1.00039
2792.88656	0.99993
2789.02898	0.99978
2785.17141	0.99992
2781.31383	1.00014
2777.45625	1.00014
2773.59867	1.00014
2769.74109	1.00003
2765.88352	0.99991
2762.02594	1.00035
2758.16836	1.00066
2754.31078	1.00062
2750.45320	1.00047
2746.59562	0.99996
2742.73805	0.99983
2738.88047	1.00029
2735.02289	1.00072
2731.16531	1.00120
2727.30773	1.00129
2723.45016	1.00046
2719.59258	0.99993
2715.73500	0.99990
2711.87742	0.99957
2708.01984	0.99978
2704.16227	1.00036
2700.30469	1.00041
2696.44711	1.00035
2692.58953	1.00004
2688.73195	0.99969
2684.87437	1.00004
2681.01680	1.00049
2677.15922	1.00020
2673.30164	0.99972
2669.44406	0.99988
2665.58648	0.99994
2661.72891	0.99968
2657.87133	0.99992
2654.01375	1.00017
2650.15617	1.00026
2646.29859	1.00035
2642.44102	1.00019
2638.58344	1.00012
2634.72586	1.00017
2630.86828	1.00021
2627.01070	1.00026
2623.15312	1.00012
2619.29555	0.99989
2615.43797	0.99995
2611.58039	1.00017
2607.72281	1.00010
2603.86523	1.00007
2600.00766	1.00055
2596.15008	1.00078
2592.29250	1.00023
2588.43492	0.99987
2584.57734	1.00007
2580.71977	1.00022
2576.86219	1.00035
2573.00461	1.00050
2569.14703	1.00045
2565.28945	1.00036
2561.43187	1.00042
2557.57430	1.00050
2553.71672	1.00030
2549.85914	1.00004
2546.00156	0.99985
2542.14398	0.99951
2538.28641	0.99955
2534.42883	1.00020
2530.57125	1.00073
2526.71367	1.00074
2522.85609	1.00022
2518.99852	0.99959
2515.14094	0.99970
2511.28336	1.00037
2507.42578	1.00064
2503.56820	1.00050
2499.71062	1.00044
2495.85305	1.00051
2491.99547	1.00038
2488.13789	1.00016
2484.28031	1.00009
2480.42273	1.00001
2476.56516	1.00005
2472.70758	1.00021
2468.85000	1.00006
2464.99242	0.99967
2461.13484	0.99954
2457.27727	0.99972
2453.41969	0.99983
2449.56211	0.99971
2445.70453	0.99954
2441.84695	0.99960
2437.98937	0.99971
2434.13180	0.99957
2430.27422	0.99946
2426.41664	0.99970
2422.55906	1.00007
2418.70148	1.00026
2414.84391	1.00016
2410.98633	0.99995
2407.12875	0.99987
2403.27117	0.99986
2399.41359	1.00003
2395.55602	0.99996
2391.69844	0.99931
2387.84086	0.99897
2383.98328	0.99856
2380.12570	0.99699
2376.26812	0.99483
2372.41055	0.99192
2368.55297	0.98901
2364.69539	0.98971
2360.83781	0.98795
2356.98023	0.98378
2353.12266	0.98763
2349.26508	0.99064
2345.40750	0.98978
2341.54992	0.98869
2337.69234	0.99033
2333.83477	0.99061
2329.97719	0.99065
2326.11961	0.99124
2322.26203	0.99178
2318.40445	0.99338
2314.54687	0.99441
2310.68930	0.99485
2306.83172	0.99636
2302.97414	0.99786
2299.11656	0.99846
2295.25898	0.99840
2291.40141	0.99852
2287.54383	0.99950
2283.68625	1.00014
2279.82867	0.99990
2275.97109	0.99956
2272.11352	0.99925
2268.25594	0.99925
2264.39836	0.99972
2260.54078	1.00022
2256.68320	1.00036
2252.82562	1.00013
2248.96805	0.99989
2245.11047	0.99967
2241.25289	0.99950
2237.39531	0.99958
2233.53773	0.99970
2229.68016	0.99980
2225.82258	1.00004
2221.96500	1.00023
2218.10742	1.00033
2214.24984	1.00036
2210.39227	1.00027
2206.53469	1.00009
2202.67711	1.00001
2198.81953	1.00016
2194.96195	1.00022
2191.10437	1.00016
2187.24680	1.00028
2183.38922	1.00047
2179.53164	1.00045
2175.67406	1.00020
2171.81648	1.00013
2167.95891	1.00015
2164.10133	0.99998
2160.24375	0.99996
2156.38617	1.00007
2152.52859	1.00010
2148.67102	1.00005
2144.81344	0.99989
2140.95586	0.99993
2137.09828	1.00015
2133.24070	1.00020
2129.38312	1.00020
2125.52555	1.00024
2121.66797	1.00027
2117.81039	1.00017
2113.95281	0.99996
2110.09523	0.99995
2106.23766	0.99993
2102.38008	0.99983
2098.52250	1.00017
2094.66492	1.00046
2090.80734	1.00020
2086.94977	0.99993
2083.09219	1.00006
2079.23461	1.00010
2075.37703	0.99984
2071.51945	0.99994
2067.66187	1.00024
2063.80430	1.00022
2059.94672	1.00010
2056.08914	1.00002
2052.23156	1.00007
2048.37398	1.00009
2044.51641	0.99987
2040.65883	0.99971
2036.80125	0.99998
2032.94367	1.00023
2029.08609	0.99985
2025.22852	0.99963
2021.37094	0.99989
2017.51336	1.00007
2013.65578	1.00025
2009.79820	1.00043
2005.94062	1.00035
2002.08305	1.00012
1998.22547	1.00014
1994.36789	1.00028
1990.51031	1.00011
1986.65273	1.00002
1982.79516	1.00015
1978.93758	1.00014
1975.08000	1.00011
1971.22242	1.00015
1967.36484	1.00013
1963.50727	1.00015
1959.64969	1.00033
1955.79211	1.00038
1951.93453	1.00015
1948.07695	0.99982
1944.21937	0.99971
1940.36180	1.00001
1936.50422	1.00020
1932.64664	1.00000
1928.78906	0.99996
1924.93148	1.00006
1921.07391	1.00013
1917.21633	1.00019
1913.35875	0.99994
1909.50117	0.99988
1905.64359	1.00008
1901.78602	0.99999
1897.92844	0.99999
1894.07086	1.00003
1890.21328	0.99976
1886.35570	0.99968
1882.49812	1.00000
1878.64055	1.00029
1874.78297	1.00032
1870.92539	1.00034
1867.06781	1.00031
1863.21023	0.99989
1859.35266	0.99958
1855.49508	0.99979
1851.63750	1.00005
1847.77992	0.99981
1843.92234	0.99964
1840.06477	1.00005
1836.20719	1.00013
1832.34961	0.99985
1828.49203	0.99985
1824.63445	0.99981
1820.77687	0.99973
1816.91930	0.99979
1813.06172	0.99979
1809.20414	0.99993
1805.34656	0.99994
1801.48898	0.99984
1797.63141	0.99996
1793.77383	0.99984
1789.91625	0.99984
1786.05867	1.00010
1782.20109	1.00007
1778.34352	0.99993
1774.48594	0.99992
1770.62836	0.99996
1766.77078	1.00004
1762.91320	1.00002
1759.05562	0.99965
1755.19805	0.99932
1751.34047	0.99927
1747.48289	0.99953
1743.62531	0.99997
1739.76773	1.00006
1735.91016	1.00004
1732.05258	1.00020
1728.19500	0.99985
1724.33742	0.99969
1720.47984	0.99987
1716.62227	0.99950
1712.76469	0.99929
1708.90711	0.99962
1705.04953	0.99975
1701.19195	0.99976
1697.33437	1.00000
1693.47680	1.00017
1689.61922	1.00014
1685.76164	0.99987
1681.90406	0.99937
1678.04648	0.99928
1674.18891	0.99964
1670.33133	1.00027
1666.47375	1.00055
1662.61617	1.00052
1658.75859	1.00037
1654.90102	1.00018
1651.04344	0.99983
1647.18586	1.00001
1643.32828	1.00031
1639.47070	1.00020
1635.61312	0.99997
1631.75555	1.00000
1627.89797	1.00014
1624.04039	1.00031
1620.18281	1.00011
1616.32523	0.99967
1612.46766	0.99969
1608.61008	0.99981
1604.75250	0.99980
1600.89492	1.00018
1597.03734	1.00037
1593.17977	1.00009
1589.32219	1.00007
1585.46461	1.00015
1581.60703	1.00008
1577.74945	1.00004
1573.89187	1.00004
1570.03430	0.99984
1566.17672	0.99961
1562.31914	0.99971
1558.46156	0.99989
1554.60398	0.99991
1550.74641	1.00000
1546.88883	1.00014
1543.03125	1.00070
1539.17367	1.00106
1535.31609	1.00056
1531.45852	1.00021
1527.60094	0.99976
1523.74336	0.99942
1519.88578	1.00010
1516.02820	1.00040
1512.17062	0.99993
1508.31305	0.99980
1504.45547	0.99999
1500.59789	0.99979
1496.74031	0.99964
1492.88273	0.99960
1489.02516	0.99964
1485.16758	0.99983
1481.31000	0.99987
1477.45242	0.99975
1473.59484	0.99994
1469.73727	1.00065
1465.87969	1.00090
1462.02211	1.00034
1458.16453	0.99965
1454.30695	1.00001
1450.44937	1.00030
1446.59180	1.00010
1442.73422	0.99989
1438.87664	0.99970
1435.01906	0.99959
1431.16148	0.99995
1427.30391	1.00036
1423.44633	1.00028
1419.58875	1.00000
1415.73117	1.00009
1411.87359	0.99999
1408.01602	0.99977
1404.15844	0.99978
1400.30086	0.99973
1396.44328	0.99969
1392.58570	0.99972
1388.72812	0.99978
1384.87055	0.99995
1381.01297	1.00002
1377.15539	1.00003
1373.29781	0.99990
1369.44023	0.99977
1365.58266	0.99987
1361.72508	0.99993
1357.86750	0.99979
1354.00992	0.99991
1350.15234	1.00035
1346.29477	1.00034
1342.43719	0.99994
1338.57961	0.99993
1334.72203	1.00017
1330.86445	1.00030
1327.00687	1.00018
1323.14930	0.99973
1319.29172	0.99958
1315.43414	1.00002
1311.57656	1.00039
1307.71898	1.00042
1303.86141	1.00037
1300.00383	1.00037
1296.14625	1.00022
1292.28867	1.00008
1288.43109	1.00033
1284.57352	1.00037
1280.71594	0.99996
1276.85836	0.99966
1273.00078	0.99952
1269.14320	0.99962
1265.28562	0.99987
1261.42805	1.00003
1257.57047	1.00015
1253.71289	1.00028
1249.85531	1.00021
1245.99773	0.99997
1242.14016	1.00005
1238.28258	1.00021
1234.42500	1.00009
1230.56742	1.00011
1226.70984	1.00027
1222.85227	1.00022
1218.99469	1.00008
1215.13711	1.00021
1211.27953	1.00038
1207.42195	1.00035
1203.56437	1.00013
1199.70680	0.99981
1195.84922	0.99991
1191.99164	1.00035
1188.13406	1.00065
1184.27648	1.00065
1180.41891	1.00021
1176.56133	0.99992
1172.70375	1.00024
1168.84617	1.00042
1164.98859	1.00024
1161.13102	0.99998
1157.27344	0.99977
1153.41586	0.99981
1149.55828	0.99992
1145.70070	0.99986
1141.84312	1.00009
1137.98555	1.00027
1134.12797	0.99993
1130.27039	0.99982
1126.41281	0.99998
1122.55523	1.00017
1118.69766	1.00040
1114.84008	1.00033
1110.98250	0.99994
1107.12492	0.99961
1103.26734	0.99989
1099.40977	1.00040
1095.55219	1.00023
1091.69461	1.00016
1087.83703	1.00064
1083.97945	1.00074
1080.12187	1.00038
1076.26430	1.00033
1072.40672	1.00045
1068.54914	1.00017
1064.69156	1.00008
1060.83398	1.00043
1056.97641	1.00056
1053.11883	1.00056
1049.26125	1.00063
1045.40367	1.00063
1041.54609	1.00035
1037.68852	0.99989
1033.83094	0.99986
1029.97336	1.00000
1026.11578	0.99986
1022.25820	1.00004
1018.40062	1.00038
1014.54305	1.00032
1010.68547	1.00021
1006.82789	1.00028
1002.97031	1.00046
999.11273	1.00058
995.25516	1.00025
991.39758	0.99978
987.54000	0.99980
983.68242	0.99998
979.82484	0.99980
975.96727	0.99957
972.10969	0.99968
968.25211	1.00002
964.39453	1.00036
960.53695	1.00057
956.67937	1.00037
952.82180	0.99998
948.96422	1.00014
945.10664	1.00050
941.24906	1.00041
937.39148	1.00033
933.53391	1.00029
929.67633	1.00019
925.81875	1.00027
921.96117	1.00012
918.10359	0.99974
914.24602	0.99949
910.38844	0.99946
906.53086	0.99997
902.67328	1.00036
898.81570	1.00004
894.95812	0.99988
891.10055	0.99981
887.24297	0.99954
883.38539	0.99991
879.52781	1.00038
875.67023	1.00045
871.81266	1.00064
867.95508	1.00055
864.09750	1.00034
860.23992	1.00048
856.38234	1.00042
852.52477	1.00014
848.66719	1.00011
844.80961	1.00068
840.95203	1.00097
837.09445	1.00020
833.23687	0.99960
829.37930	0.99989
825.52172	1.00032
821.66414	1.00029
817.80656	1.00001
813.94898	1.00011
810.09141	1.00054
806.23383	1.00075
802.37625	1.00018
798.51867	0.99961
794.66109	0.99977
790.80352	0.99971
786.94594	0.99959
783.08836	0.99982
779.23078	0.99989
775.37320	1.00002
771.51562	1.00021
767.65805	1.00030
763.80047	1.00028
759.94289	1.00034
756.08531	1.00063
752.22773	1.00055
748.37016	1.00056
744.51258	1.00098
740.65500	1.00076
736.79742	0.99982
732.93984	0.99922
729.08227	0.99943
725.22469	0.99928
721.36711	0.99972
717.50953	1.00179
713.65195	1.00140
709.79437	0.99940
705.93680	0.99973
702.07922	1.00012
698.22164	0.99946
694.36406	0.99937
690.50648	0.99933
686.64891	0.99901
682.79133	0.99858
678.93375	0.99787
675.07617	0.99687
671.21859	0.99607
667.36102	0.99789
663.50344	1.00003
659.64586	0.99851
655.78828	0.99627
651.93070	0.99775
648.07312	0.99962
644.21555	0.99907
640.35797	0.99845
636.50039	0.99948
632.64281	1.00069
628.78523	1.00011
624.92766	0.99970
621.07008	0.99991
617.21250	0.99913
613.35492	0.99928
609.49734	1.00018
605.63977	1.00058
601.78219	1.00082
597.92461	1.00035
594.06703	1.00024
590.20945	1.00037
586.35187	0.99974
582.49430	0.99904
578.63672	0.99802
574.77914	0.99814
570.92156	0.99971
567.06398	1.00066
563.20641	1.00107
559.34883	1.00093
555.49125	1.00063
551.63367	1.00098
547.77609	1.00115
543.91852	1.00058
540.06094	1.00045
536.20336	1.00175
532.34578	1.00209
528.48820	0.99983
524.63062	0.99861
520.77305	0.99992
516.91547	1.00080
513.05789	1.00190
509.20031	1.00318
505.34273	1.00149
501.48516	0.99945
497.62758	0.99998
493.77000	0.99922
489.91242	0.99718
486.05484	0.99854
482.19727	1.00146
478.33969	1.00120
474.48211	1.00072
470.62453	1.00084
466.76695	1.00015
462.90937	1.00169
459.05180	1.00186
455.19422	0.99787
451.33664	0.99727
447.47906	1.00037
443.62148	1.00074
439.76391	0.99681
435.90633	0.99713
432.04875	1.00077
428.19117	0.99951
424.33359	0.99875
420.47602	1.00815
416.61844	1.01382
412.76086	1.00183
408.90328	0.99209
405.04570	0.99877
401.18812	1.00777
397.33055	1.00152
393.47297	0.98473
389.61539	0.97418
385.75781	0.97587
381.90023	0.99516
378.04266	1.01958
374.18508	1.00934
370.32750	0.96727
366.46992	0.98444
362.61234	0.99734
358.75477	0.94576
354.89719	0.91852
351.03961	1.04426
347.18203	1.27749
343.32445	1.19479
339.46687	0.91561
335.60930	0.88801
331.75172	1.03736
327.89414	1.07825
324.03656	0.81322
320.17898	0.89587
316.32141	4.45314
312.46383	4.45314
308.60625	4.45314
304.74867	4.45314
300.89109	4.45314
