8000.61703	0.89476
7996.75945	1.60882
7992.90187	1.27516
7989.04430	0.81681
7985.18672	0.90618
7981.32914	0.81954
7977.47156	0.48947
7973.61398	1.09229
7969.75641	1.66460
7965.89883	1.13781
7962.04125	1.07989
7958.18367	1.52150
7954.32609	1.73921
7950.46852	1.33138
7946.61094	1.34170
7942.75336	1.68280
7938.89578	1.61259
7935.03820	1.19421
7931.18062	1.15289
7927.32305	0.84860
7923.46547	0.21100
7919.60789	0.18010
7915.75031	1.20770
7911.89273	1.18935
7908.03516	0.85593
7904.17758	1.23611
7900.32000	1.23611
7896.46242	1.23611
7892.60484	1.23611
7888.74727	1.86725
7884.88969	1.20936
7881.03211	0.96940
7877.17453	1.00931
7873.31695	0.77293
7869.45937	0.17468
7865.60180	0.26635
7861.74422	0.75657
7857.88664	1.47120
7854.02906	2.53977
7850.17148	2.54383
7846.31391	1.60251
7842.45633	1.26797
7838.59875	1.31500
7834.74117	1.97943
7830.88359	1.99396
7827.02602	1.20184
7823.16844	0.80794
7819.31086	0.89362
7815.45328	1.12620
7811.59570	0.76398
7807.73812	0.58608
7803.88055	0.93538
7800.02297	1.14985
7796.16539	0.94774
7792.30781	1.02461
7788.45023	0.97009
7784.59266	1.14874
7780.73508	1.79491
7776.87750	1.71852
7773.01992	1.14096
7769.16234	0.64269
7765.30477	0.54936
7761.44719	0.86534
7757.58961	1.10549
7753.73203	1.02509
7749.87445	1.00759
7746.01687	1.04240
7742.15930	1.22195
7738.30172	1.34420
7734.44414	1.13222
7730.58656	0.89083
7726.72898	0.85759
7722.87141	1.09012
7719.01383	1.10761
7715.15625	0.82024
7711.29867	0.78601
7707.44109	0.90613
7703.58352	1.09753
7699.72594	1.51446
7695.86836	1.63706
7692.01078	1.10783
7688.15320	0.99002
7684.29562	1.02620
7680.43805	0.85982
7676.58047	0.86548
7672.72289	1.16499
7668.86531	1.04749
7665.00773	0.84266
7661.15016	0.92034
7657.29258	1.02988
7653.43500	1.02378
7649.57742	0.90911
7645.71984	0.86251
7641.86227	1.01718
7638.00469	1.18868
7634.14711	1.32807
7630.28953	1.24241
7626.43195	0.94580
7622.57437	0.83238
7618.71680	1.01311
7614.85922	1.08271
7611.00164	0.91646
7607.14406	0.89889
7603.28648	1.02222
7599.42891	1.10684
7595.57133	1.14783
7591.71375	1.03530
7587.85617	0.94733
7583.99859	0.95928
7580.14102	0.98895
7576.28344	1.08679
7572.42586	1.09714
7568.56828	1.02897
7564.71070	1.02102
7560.85312	1.04623
7556.99555	1.03972
7553.13797	0.99569
7549.28039	1.02261
7545.42281	1.01028
7541.56523	0.96625
7537.70766	1.07172
7533.85008	1.05442
7529.99250	0.92632
7526.13492	0.92186
7522.27734	0.93054
7518.41977	0.93361
7514.56219	1.00574
7510.70461	1.00989
7506.84703	1.03764
7502.98945	1.13470
7499.13187	1.06014
7495.27430	0.97607
7491.41672	1.06076
7487.55914	1.11161
7483.70156	1.02301
7479.84398	0.95752
7475.98641	1.01570
7472.12883	1.02591
7468.27125	0.99415
7464.41367	1.01778
7460.55609	0.97711
7456.69852	0.94063
7452.84094	0.93117
7448.98336	0.92564
7445.12578	0.99274
7441.26820	0.99860
7437.41062	1.00375
7433.55305	1.12951
7429.69547	1.12479
7425.83789	0.96862
7421.98031	0.95320
7418.12273	1.03306
7414.26516	1.00049
7410.40758	0.96261
7406.55000	0.99178
7402.69242	0.95024
7398.83484	0.88170
7394.97727	0.88654
7391.11969	0.99818
7387.26211	1.10935
7383.40453	1.07636
7379.54695	1.06909
7375.68937	1.13047
7371.83180	1.10660
7367.97422	1.04555
7364.11664	0.98294
7360.25906	0.97266
7356.40148	0.95342
7352.54391	0.95994
7348.68633	1.14569
7344.82875	1.24013
7340.97117	1.07279
7337.11359	1.02907
7333.25602	1.10878
7329.39844	1.17462
7325.54086	1.05279
7321.68328	0.95459
7317.82570	0.94007
7313.96812	0.91019
7310.11055	0.94763
7306.25297	1.03486
7302.39539	1.01391
7298.53781	0.93740
7294.68023	0.93286
7290.82266	1.03157
7286.96508	1.03243
7283.10750	0.91103
7279.24992	0.88380
7275.39234	0.96502
7271.53477	1.04380
7267.67719	1.01557
7263.81961	0.93009
7259.96203	0.97000
7256.10445	1.07602
7252.24687	1.04772
7248.38930	0.96827
7244.53172	0.94993
7240.67414	0.97606
7236.81656	1.04029
7232.95898	1.11538
7229.10141	1.05665
7225.24383	0.94059
7221.38625	0.87378
7217.52867	0.87562
7213.67109	0.93587
7209.81352	1.01981
7205.95594	1.01094
7202.09836	0.95166
7198.24078	0.98091
7194.38320	1.00513
7190.52562	1.00135
7186.66805	1.06601
7182.81047	1.05844
7178.95289	0.98881
7175.09531	1.02766
7171.23773	1.02090
7167.38016	0.97627
7163.52258	0.99105
7159.66500	1.00214
7155.80742	1.04158
7151.94984	1.05205
7148.09227	0.99055
7144.23469	0.94134
7140.37711	0.96958
7136.51953	1.02154
7132.66195	1.01767
7128.80437	1.00669
7124.94680	0.97788
7121.08922	0.94414
7117.23164	0.98111
7113.37406	1.02694
7109.51648	1.03682
7105.65891	1.00790
7101.80133	0.95178
7097.94375	0.95983
7094.08617	1.01700
7090.22859	0.99431
7086.37102	0.99251
7082.51344	1.06910
7078.65586	1.06638
7074.79828	0.98910
7070.94070	0.91762
7067.08312	0.90330
7063.22555	0.98005
7059.36797	1.07668
7055.51039	1.07015
7051.65281	1.01688
7047.79523	1.04797
7043.93766	1.07994
7040.08008	1.02582
7036.22250	1.00016
7032.36492	1.01621
7028.50734	1.02403
7024.64977	1.04511
7020.79219	1.08709
7016.93461	1.06810
7013.07703	0.99525
7009.21945	0.97949
7005.36187	1.02004
7001.50430	1.01740
6997.64672	0.96676
6993.78914	0.95972
6989.93156	0.98014
6986.07398	0.99288
6982.21641	1.02064
6978.35883	0.99680
6974.50125	0.96947
6970.64367	1.00674
6966.78609	1.01080
6962.92852	0.99312
6959.07094	1.01090
6955.21336	1.01662
6951.35578	0.98444
6947.49820	0.96147
6943.64062	0.99388
6939.78305	1.01181
6935.92547	0.96127
6932.06789	0.96739
6928.21031	1.04471
6924.35273	1.06166
6920.49516	0.99886
6916.63758	0.93431
6912.78000	0.91362
6908.92242	0.92954
6905.06484	0.96872
6901.20727	1.00981
6897.34969	1.00897
6893.49211	0.97619
6889.63453	0.97783
6885.77695	1.00973
6881.91937	1.01222
6878.06180	0.99100
6874.20422	0.98573
6870.34664	1.00332
6866.48906	1.00537
6862.63148	0.98309
6858.77391	0.99546
6854.91633	1.01836
6851.05875	0.99335
6847.20117	0.98826
6843.34359	0.99920
6839.48602	0.97027
6835.62844	0.95091
6831.77086	0.97264
6827.91328	0.99567
6824.05570	0.97426
6820.19812	0.96115
6816.34055	1.02545
6812.48297	1.07357
6808.62539	1.01006
6804.76781	0.96363
6800.91023	0.99613
6797.05266	1.01059
6793.19508	0.97811
6789.33750	0.97311
6785.47992	0.99492
6781.62234	0.99795
6777.76477	0.99214
6773.90719	0.97241
6770.04961	0.93603
6766.19203	0.94411
6762.33445	0.99628
6758.47687	1.00266
6754.61930	0.98048
6750.76172	0.98832
6746.90414	0.98242
6743.04656	0.96962
6739.18898	0.97963
6735.33141	0.98864
6731.47383	0.99727
6727.61625	0.98511
6723.75867	0.96702
6719.90109	0.98328
6716.04352	0.98488
6712.18594	0.98797
6708.32836	1.01789
6704.47078	1.01681
6700.61320	1.00745
6696.75562	1.00260
6692.89805	0.98480
6689.04047	0.98697
6685.18289	1.00245
6681.32531	1.01940
6677.46773	1.03319
6673.61016	1.02619
6669.75258	1.00207
6665.89500	0.98378
6662.03742	1.00321
6658.17984	1.04217
6654.32227	1.04296
6650.46469	0.99594
6646.60711	0.95532
6642.74953	0.96094
6638.89195	0.99365
6635.03437	1.03565
6631.17680	1.05380
6627.31922	1.02191
6623.46164	0.98186
6619.60406	0.97195
6615.74648	0.99413
6611.88891	1.01651
6608.03133	1.01429
6604.17375	1.00284
6600.31617	1.00257
6596.45859	1.02494
6592.60102	1.04229
6588.74344	1.03543
6584.88586	1.01597
6581.02828	0.97833
6577.17070	0.96599
6573.31312	1.00773
6569.45555	1.03032
6565.59797	1.01290
6561.74039	1.01141
6557.88281	1.01579
6554.02523	0.99947
6550.16766	0.96984
6546.31008	0.95713
6542.45250	0.98172
6538.59492	1.00661
6534.73734	1.02266
6530.87977	1.03536
6527.02219	1.02177
6523.16461	0.99943
6519.30703	0.98760
6515.44945	0.98877
6511.59187	1.00385
6507.73430	1.00565
6503.87672	0.99247
6500.01914	1.00069
6496.16156	1.01507
6492.30398	1.00555
6488.44641	0.98990
6484.58883	0.98450
6480.73125	0.99473
6476.87367	0.99761
6473.01609	0.98354
6469.15852	0.99617
6465.30094	1.02513
6461.44336	1.04120
6457.58578	1.04173
6453.72820	1.00939
6449.87062	0.98169
6446.01305	0.99339
6442.15547	1.01283
6438.29789	1.00913
6434.44031	0.99480
6430.58273	0.98967
6426.72516	0.99451
6422.86758	1.01510
6419.01000	1.02553
6415.15242	1.00388
6411.29484	1.00268
6407.43727	1.03227
6403.57969	1.04362
6399.72211	1.03039
6395.86453	1.01347
6392.00695	0.99915
6388.14937	0.98636
6384.29180	0.98573
6380.43422	0.99972
6376.57664	1.01562
6372.71906	1.02727
6368.86148	1.01814
6365.00391	0.99132
6361.14633	0.98766
6357.28875	1.00378
6353.43117	0.98859
6349.57359	0.96142
6345.71602	0.97791
6341.85844	1.01594
6338.00086	1.02391
6334.14328	1.01121
6330.28570	1.00347
6326.42812	0.99811
6322.57055	0.99332
6318.71297	0.99051
6314.85539	0.99029
6310.99781	1.00282
6307.14023	1.02511
6303.28266	1.02824
6299.42508	1.00191
6295.56750	0.98289
6291.70992	0.99592
6287.85234	1.01249
6283.99477	1.00681
6280.13719	1.00125
6276.27961	1.01588
6272.42203	1.03177
6268.56445	1.03125
6264.70687	1.02089
6260.84930	1.01238
6256.99172	1.00989
6253.13414	1.01194
6249.27656	1.00720
6245.41898	0.99311
6241.56141	1.00552
6237.70383	1.02252
6233.84625	1.00280
6229.98867	0.99686
6226.13109	1.00373
6222.27352	0.99669
6218.41594	0.98938
6214.55836	0.98620
6210.70078	1.00526
6206.84320	1.01824
6202.98562	1.00885
6199.12805	1.01217
6195.27047	1.01805
6191.41289	1.01426
6187.55531	1.00248
6183.69773	0.99016
6179.84016	0.98595
6175.98258	0.98835
6172.12500	1.00107
6168.26742	1.01292
6164.40984	1.02033
6160.55227	1.02886
6156.69469	1.02473
6152.83711	1.00888
6148.97953	1.00141
6145.12195	0.99620
6141.26437	0.98938
6137.40680	1.00247
6133.54922	1.01037
6129.69164	0.98888
6125.83406	0.97952
6121.97648	0.99381
6118.11891	1.00457
6114.26133	1.00665
6110.40375	1.00738
6106.54617	1.00174
6102.68859	0.99238
6098.83102	0.99448
6094.97344	1.00425
6091.11586	1.00492
6087.25828	1.00158
6083.40070	1.00936
6079.54312	1.01404
6075.68555	0.99771
6071.82797	0.98959
6067.97039	1.00536
6064.11281	1.00799
6060.25523	0.99816
6056.39766	1.01112
6052.54008	1.03008
6048.68250	1.01863
6044.82492	0.99748
6040.96734	1.00078
6037.10977	1.00183
6033.25219	0.98892
6029.39461	0.99492
6025.53703	1.00243
6021.67945	0.99797
6017.82187	0.99630
6013.96430	0.99936
6010.10672	1.01010
6006.24914	1.00648
6002.39156	0.99394
5998.53398	0.99733
5994.67641	1.00303
5990.81883	1.00780
5986.96125	1.01080
5983.10367	1.00848
5979.24609	1.00245
5975.38852	0.99762
5971.53094	1.00370
5967.67336	1.01144
5963.81578	1.01081
5959.95820	0.99757
5956.10062	0.99036
5952.24305	1.00352
5948.38547	1.00695
5944.52789	0.99370
5940.67031	0.98278
5936.81273	0.98773
5932.95516	1.00348
5929.09758	1.00472
5925.24000	0.99742
5921.38242	0.98768
5917.52484	0.97982
5913.66727	0.99127
5909.80969	1.00785
5905.95211	1.01457
5902.09453	1.00566
5898.23695	0.98723
5894.37937	0.99104
5890.52180	1.00359
5886.66422	0.99420
5882.80664	0.99065
5878.94906	1.00764
5875.09148	1.01774
5871.23391	1.01303
5867.37633	1.00311
5863.51875	0.99838
5859.66117	1.00858
5855.80359	1.00868
5851.94602	0.98934
5848.08844	0.98917
5844.23086	1.00106
5840.37328	1.00046
5836.51570	1.00422
5832.65812	1.00677
5828.80055	0.99424
5824.94297	0.98776
5821.08539	1.00068
5817.22781	1.00589
5813.37023	0.98895
5809.51266	0.98575
5805.65508	1.00328
5801.79750	1.01199
5797.93992	1.00869
5794.08234	1.00428
5790.22477	0.99987
5786.36719	0.99282
5782.50961	0.98793
5778.65203	0.99057
5774.79445	0.99937
5770.93687	1.00918
5767.07930	1.00917
5763.22172	1.00422
5759.36414	1.00772
5755.50656	1.00940
5751.64898	1.00471
5747.79141	1.00726
5743.93383	1.00379
5740.07625	0.98785
5736.21867	0.98878
5732.36109	0.99943
5728.50352	0.99121
5724.64594	0.98613
5720.78836	1.00202
5716.93078	1.01163
5713.07320	1.00781
5709.21562	1.00609
5705.35805	1.00168
5701.50047	1.00166
5697.64289	1.01607
5693.78531	1.02252
5689.92773	1.01162
5686.07016	1.00363
5682.21258	1.00390
5678.35500	1.00173
5674.49742	0.99911
5670.63984	1.00443
5666.78227	1.00742
5662.92469	1.00135
5659.06711	1.00373
5655.20953	1.01394
5651.35195	1.01059
5647.49437	0.99921
5643.63680	0.99754
5639.77922	1.00410
5635.92164	1.00943
5632.06406	1.00827
5628.20648	1.00043
5624.34891	0.99260
5620.49133	0.99173
5616.63375	0.99861
5612.77617	1.00837
5608.91859	1.00881
5605.06102	0.99973
5601.20344	0.99497
5597.34586	0.99476
5593.48828	0.99314
5589.63070	0.99035
5585.77312	0.99089
5581.91555	0.99890
5578.05797	1.00558
5574.20039	1.00597
5570.34281	1.00538
5566.48523	1.00007
5562.62766	0.99585
5558.77008	1.00280
5554.91250	1.00678
5551.05492	1.00128
5547.19734	0.99594
5543.33977	0.99338
5539.48219	0.99691
5535.62461	0.99831
5531.76703	0.99347
5527.90945	0.99512
5524.05187	0.99661
5520.19430	0.99255
5516.33672	0.99387
5512.47914	0.99899
5508.62156	1.00268
5504.76398	1.00122
5500.90641	0.99570
5497.04883	0.99430
5493.19125	0.99847
5489.33367	1.00505
5485.47609	1.00417
5481.61852	0.99831
5477.76094	1.00189
5473.90336	1.00038
5470.04578	0.98773
5466.18820	0.98786
5462.33062	0.99830
5458.47305	1.00382
5454.61547	1.00306
5450.75789	0.99987
5446.90031	0.99878
5443.04273	0.99922
5439.18516	1.00235
5435.32758	1.00283
5431.47000	0.99638
5427.61242	0.99092
5423.75484	0.98714
5419.89727	0.98808
5416.03969	0.99589
5412.18211	1.00053
5408.32453	1.00525
5404.46695	1.01452
5400.60937	1.01112
5396.75180	0.99036
5392.89422	0.97892
5389.03664	0.98630
5385.17906	0.99328
5381.32148	0.99739
5377.46391	1.00309
5373.60633	1.00342
5369.74875	0.99962
5365.89117	0.99364
5362.03359	0.98902
5358.17602	0.98940
5354.31844	0.99105
5350.46086	0.99466
5346.60328	0.99704
5342.74570	0.99966
5338.88812	1.00371
5335.03055	1.00181
5331.17297	1.00270
5327.31539	1.00486
5323.45781	1.00148
5319.60023	1.00243
5315.74266	1.00465
5311.88508	1.00218
5308.02750	0.99930
5304.16992	1.00177
5300.31234	1.00597
5296.45477	1.00191
5292.59719	1.00034
5288.73961	1.00617
5284.88203	1.00462
5281.02445	1.00117
5277.16687	1.00279
5273.30930	1.00526
5269.45172	1.00603
5265.59414	1.00169
5261.73656	1.00036
5257.87898	1.00383
5254.02141	1.00167
5250.16383	0.99970
5246.30625	0.99896
5242.44867	0.99394
5238.59109	0.99688
5234.73352	1.00525
5230.87594	1.00246
5227.01836	1.00031
5223.16078	1.00919
5219.30320	1.00784
5215.44562	1.00010
5211.58805	1.00015
5207.73047	0.99611
5203.87289	0.99440
5200.01531	1.00531
5196.15773	1.00816
5192.30016	0.99859
5188.44258	0.99855
5184.58500	1.00485
5180.72742	1.00090
5176.86984	0.99679
5173.01227	0.99847
5169.15469	0.99895
5165.29711	0.99974
5161.43953	0.99997
5157.58195	1.00053
5153.72437	1.00231
5149.86680	1.00331
5146.00922	1.00881
5142.15164	1.01381
5138.29406	1.00912
5134.43648	1.00298
5130.57891	1.00179
5126.72133	1.00095
5122.86375	0.99966
5119.00617	0.99990
5115.14859	1.00136
5111.29102	0.99926
5107.43344	0.99394
5103.57586	0.99928
5099.71828	1.00737
5095.86070	1.00241
5092.00312	0.99761
5088.14555	0.99900
5084.28797	1.00235
5080.43039	1.00485
5076.57281	1.00318
5072.71523	1.00356
5068.85766	1.00167
5065.00008	0.99554
5061.14250	0.99994
5057.28492	1.00870
5053.42734	1.00522
5049.56977	0.99922
5045.71219	0.99762
5041.85461	0.99464
5037.99703	0.99626
5034.13945	0.99857
5030.28187	0.99686
5026.42430	0.99777
5022.56672	0.99595
5018.70914	0.99635
5014.85156	1.00007
5010.99398	0.99521
5007.13641	0.99631
5003.27883	1.00645
4999.42125	1.00501
4995.56367	0.99845
4991.70609	0.99685
4987.84852	0.99314
4983.99094	0.99136
4980.13336	0.99477
4976.27578	0.99717
4972.41820	1.00086
4968.56062	1.00191
4964.70305	0.99593
4960.84547	0.99491
4956.98789	1.00058
4953.13031	1.00306
4949.27273	0.99966
4945.41516	0.99772
4941.55758	1.00201
4937.70000	1.00038
4933.84242	0.99654
4929.98484	1.00352
4926.12727	1.00537
4922.26969	0.99968
4918.41211	1.00033
4914.55453	1.00167
4910.69695	1.00266
4906.83937	1.00300
4902.98180	0.99596
4899.12422	0.99036
4895.26664	0.99487
4891.40906	1.00253
4887.55148	1.00526
4883.69391	1.00479
4879.83633	1.00380
4875.97875	0.99985
4872.12117	0.99652
4868.26359	0.99785
4864.40602	0.99694
4860.54844	0.99346
4856.69086	0.99437
4852.83328	0.99712
4848.97570	0.99935
4845.11812	1.00259
4841.26055	1.00504
4837.40297	1.00502
4833.54539	1.00318
4829.68781	1.00106
4825.83023	0.99878
4821.97266	0.99702
4818.11508	0.99729
4814.25750	1.00061
4810.39992	1.00564
4806.54234	1.00576
4802.68477	1.00180
4798.82719	0.99970
4794.96961	0.99785
4791.11203	0.99834
4787.25445	1.00166
4783.39687	1.00160
4779.53930	1.00088
4775.68172	1.00095
4771.82414	1.00028
4767.96656	1.00244
4764.10898	1.00157
4760.25141	0.99882
4756.39383	1.00245
4752.53625	1.00138
4748.67867	0.99548
4744.82109	0.99650
4740.96352	0.99824
4737.10594	0.99910
4733.24836	1.00174
4729.39078	1.00037
4725.53320	0.99805
4721.67562	0.99958
4717.81805	1.00129
4713.96047	1.00108
4710.10289	0.99791
4706.24531	0.99275
4702.38773	0.99177
4698.53016	0.99610
4694.67258	1.00134
4690.81500	1.00221
4686.95742	0.99780
4683.09984	0.99604
4679.24227	0.99847
4675.38469	1.00117
4671.52711	1.00497
4667.66953	1.00576
4663.81195	1.00255
4659.95437	1.00105
4656.09680	0.99946
4652.23922	0.99762
4648.38164	0.99910
4644.52406	1.00190
4640.66648	1.00466
4636.80891	1.00333
4632.95133	0.99774
4629.09375	0.99874
4625.23617	1.00418
4621.37859	1.00502
4617.52102	1.00468
4613.66344	1.00412
4609.80586	1.00257
4605.94828	1.00356
4602.09070	1.00325
4598.23312	0.99826
4594.37555	0.99601
4590.51797	0.99886
4586.66039	1.00148
4582.80281	1.00338
4578.94523	1.00311
4575.08766	1.00024
4571.23008	0.99892
4567.37250	0.99953
4563.51492	1.00141
4559.65734	1.00176
4555.79977	1.00070
4551.94219	1.00241
4548.08461	1.00348
4544.22703	1.00549
4540.36945	1.01017
4536.51187	1.00742
4532.65430	0.99955
4528.79672	0.99640
4524.93914	0.99734
4521.08156	1.00046
4517.22398	1.00273
4513.36641	1.00272
4509.50883	1.00348
4505.65125	1.00402
4501.79367	1.00275
4497.93609	1.00038
4494.07852	0.99817
4490.22094	0.99777
4486.36336	0.99878
4482.50578	0.99971
4478.64820	0.99867
4474.79062	0.99854
4470.93305	1.00289
4467.07547	1.00564
4463.21789	1.00290
4459.36031	0.99860
4455.50273	0.99619
4451.64516	0.99614
4447.78758	0.99647
4443.93000	0.99818
4440.07242	1.00143
4436.21484	1.00244
4432.35727	1.00125
4428.49969	0.99995
4424.64211	1.00024
4420.78453	1.00166
4416.92695	1.00114
4413.06937	0.99961
4409.21180	0.99988
4405.35422	1.00135
4401.49664	1.00190
4397.63906	1.00130
4393.78148	1.00011
4389.92391	0.99860
4386.06633	0.99886
4382.20875	0.99886
4378.35117	0.99640
4374.49359	0.99746
4370.63602	1.00207
4366.77844	1.00301
4362.92086	1.00140
4359.06328	1.00053
4355.20570	0.99868
4351.34812	0.99801
4347.49055	1.00008
4343.63297	1.00040
4339.77539	0.99912
4335.91781	0.99946
4332.06023	1.00160
4328.20266	1.00328
4324.34508	1.00057
4320.48750	0.99751
4316.62992	0.99918
4312.77234	1.00002
4308.91477	0.99737
4305.05719	0.99694
4301.19961	1.00085
4297.34203	1.00243
4293.48445	1.00108
4289.62687	1.00342
4285.76930	1.00343
4281.91172	0.99889
4278.05414	0.99862
4274.19656	1.00021
4270.33898	0.99976
4266.48141	0.99851
4262.62383	0.99788
4258.76625	1.00005
4254.90867	1.00209
4251.05109	1.00087
4247.19352	0.99861
4243.33594	0.99865
4239.47836	1.00010
4235.62078	1.00043
4231.76320	1.00035
4227.90562	1.00022
4224.04805	1.00077
4220.19047	1.00109
4216.33289	1.00003
4212.47531	1.00076
4208.61773	1.00247
4204.76016	1.00157
4200.90258	0.99965
4197.04500	0.99978
4193.18742	1.00055
4189.32984	1.00034
4185.47227	1.00016
4181.61469	0.99928
4177.75711	0.99924
4173.89953	1.00082
4170.04195	1.00083
4166.18437	1.00070
4162.32680	1.00053
4158.46922	0.99899
4154.61164	0.99989
4150.75406	1.00112
4146.89648	0.99876
4143.03891	0.99767
4139.18133	0.99882
4135.32375	0.99837
4131.46617	0.99745
4127.60859	0.99769
4123.75102	0.99906
4119.89344	1.00075
4116.03586	1.00127
4112.17828	1.00088
4108.32070	1.00145
4104.46312	1.00280
4100.60555	1.00171
4096.74797	0.99859
4092.89039	0.99776
4089.03281	0.99957
4085.17523	1.00086
4081.31766	1.00161
4077.46008	1.00283
4073.60250	1.00273
4069.74492	1.00068
4065.88734	0.99902
4062.02977	1.00061
4058.17219	1.00275
4054.31461	1.00068
4050.45703	0.99796
4046.59945	0.99848
4042.74187	0.99981
4038.88430	1.00044
4035.02672	1.00129
4031.16914	1.00123
4027.31156	0.99905
4023.45398	0.99836
4019.59641	1.00029
4015.73883	1.00110
4011.88125	1.00040
4008.02367	0.99957
4004.16609	0.99920
4000.30852	0.99930
3996.45094	0.99904
3992.59336	0.99841
3988.73578	0.99819
3984.87820	0.99914
3981.02062	1.00039
3977.16305	1.00047
3973.30547	0.99910
3969.44789	0.99722
3965.59031	0.99773
3961.73273	1.00000
3957.87516	0.99975
3954.01758	0.99742
3950.16000	0.99634
3946.30242	0.99814
3942.44484	1.00002
3938.58727	1.00106
3934.72969	1.00300
3930.87211	1.00263
3927.01453	1.00083
3923.15695	1.00067
3919.29937	1.00033
3915.44180	1.00032
3911.58422	0.99961
3907.72664	0.99809
3903.86906	0.99873
3900.01148	1.00091
3896.15391	1.00056
3892.29633	0.99962
3888.43875	0.99910
3884.58117	0.99748
3880.72359	0.99831
3876.86602	1.00129
3873.00844	1.00169
3869.15086	1.00181
3865.29328	1.00283
3861.43570	1.00182
3857.57812	0.99965
3853.72055	0.99684
3849.86297	0.99744
3846.00539	0.99789
3842.14781	0.99876
3838.29023	1.00049
3834.43266	1.00026
3830.57508	1.00092
3826.71750	1.00029
3822.85992	0.99875
3819.00234	0.99935
3815.14477	1.00003
3811.28719	1.00104
3807.42961	1.00109
3803.57203	1.00039
3799.71445	1.00221
3795.85687	1.00184
3791.99930	1.00064
3788.14172	1.00063
3784.28414	0.99991
3780.42656	0.99906
3776.56898	1.00004
3772.71141	1.00193
3768.85383	1.00318
3764.99625	1.00158
3761.13867	0.99901
3757.28109	0.99729
3753.42352	0.99627
3749.56594	0.99721
3745.70836	0.99979
3741.85078	1.00021
3737.99320	1.00049
3734.13562	0.99949
3730.27805	0.99655
3726.42047	0.99549
3722.56289	0.99754
3718.70531	0.99878
3714.84773	0.99838
3710.99016	0.99870
3707.13258	0.99844
3703.27500	0.99770
3699.41742	0.99793
3695.55984	0.99848
3691.70227	0.99925
3687.84469	0.99972
3683.98711	0.99980
3680.12953	1.00030
3676.27195	1.00060
3672.41437	1.00093
3668.55680	1.00077
3664.69922	1.00025
3660.84164	1.00073
3656.98406	1.00143
3653.12648	1.00177
3649.26891	1.00224
3645.41133	1.00049
3641.55375	0.99885
3637.69617	0.99841
3633.83859	0.99892
3629.98102	0.99939
3626.12344	0.99947
3622.26586	0.99954
3618.40828	0.99861
3614.55070	0.99796
3610.69312	0.99851
3606.83555	0.99860
3602.97797	0.99939
3599.12039	0.99934
3595.26281	0.99719
3591.40523	0.99706
3587.54766	0.99839
3583.69008	0.99884
3579.83250	0.99918
3575.97492	0.99952
3572.11734	0.99959
3568.25977	0.99971
3564.40219	1.00024
3560.54461	0.99993
3556.68703	0.99930
3552.82945	0.99986
3548.97187	1.00071
3545.11430	1.00061
3541.25672	1.00015
3537.39914	1.00051
3533.54156	1.00140
3529.68398	1.00140
3525.82641	1.00073
3521.96883	1.00000
3518.11125	0.99982
3514.25367	1.00051
3510.39609	1.00094
3506.53852	1.00116
3502.68094	1.00135
3498.82336	1.00049
3494.96578	0.99952
3491.10820	0.99948
3487.25062	1.00015
3483.39305	1.00071
3479.53547	1.00040
3475.67789	1.00003
3471.82031	1.00013
3467.96273	1.00032
3464.10516	1.00083
3460.24758	1.00067
3456.39000	0.99938
3452.53242	0.99944
3448.67484	1.00091
3444.81727	1.00070
3440.95969	0.99915
3437.10211	0.99904
3433.24453	1.00022
3429.38695	1.00075
3425.52937	1.00078
3421.67180	1.00143
3417.81422	1.00157
3413.95664	1.00059
3410.09906	1.00009
3406.24148	1.00006
3402.38391	1.00002
3398.52633	1.00034
3394.66875	0.99983
3390.81117	0.99914
3386.95359	1.00010
3383.09602	1.00096
3379.23844	1.00019
3375.38086	0.99928
3371.52328	0.99978
3367.66570	1.00054
3363.80812	1.00035
3359.95055	1.00055
3356.09297	1.00091
3352.23539	1.00050
3348.37781	1.00018
3344.52023	1.00006
3340.66266	1.00000
3336.80508	0.99999
3332.94750	1.00002
3329.08992	1.00033
3325.23234	1.00030
3321.37477	0.99992
3317.51719	0.99971
3313.65961	0.99949
3309.80203	0.99958
3305.94445	1.00005
3302.08687	1.00053
3298.22930	1.00071
3294.37172	1.00067
3290.51414	1.00105
3286.65656	1.00105
3282.79898	1.00025
3278.94141	0.99984
3275.08383	1.00009
3271.22625	1.00052
3267.36867	1.00056
3263.51109	1.00051
3259.65352	1.00056
3255.79594	1.00039
3251.93836	1.00041
3248.08078	1.00005
3244.22320	0.99990
3240.36562	1.00084
3236.50805	1.00115
3232.65047	1.00070
3228.79289	1.00009
3224.93531	0.99969
3221.07773	1.00015
3217.22016	1.00044
3213.36258	1.00048
3209.50500	1.00070
3205.64742	1.00079
3201.78984	1.00115
3197.93227	1.00113
3194.07469	1.00069
3190.21711	1.00085
3186.35953	1.00112
3182.50195	1.00132
3178.64437	1.00107
3174.78680	1.00035
3170.92922	1.00012
3167.07164	0.99964
3163.21406	0.99960
3159.35648	1.00091
3155.49891	1.00129
3151.64133	1.00044
3147.78375	1.00003
3143.92617	1.00035
3140.06859	1.00077
3136.21102	1.00032
3132.35344	0.99961
3128.49586	1.00000
3124.63828	1.00092
3120.78070	1.00100
3116.92312	1.00048
3113.06555	1.00032
3109.20797	1.00031
3105.35039	0.99991
3101.49281	0.99959
3097.63523	1.00024
3093.77766	1.00103
3089.92008	1.00069
3086.06250	0.99997
3082.20492	1.00015
3078.34734	1.00077
3074.48977	1.00036
3070.63219	0.99971
3066.77461	0.99996
3062.91703	0.99998
3059.05945	0.99995
3055.20187	1.00046
3051.34430	1.00054
3047.48672	1.00020
3043.62914	0.99984
3039.77156	0.99994
3035.91398	1.00053
3032.05641	1.00072
3028.19883	1.00035
3024.34125	0.99991
3020.48367	1.00012
3016.62609	1.00051
3012.76852	1.00011
3008.91094	1.00004
3005.05336	1.00055
3001.19578	1.00054
2997.33820	1.00050
2993.48062	1.00066
2989.62305	1.00056
2985.76547	1.00005
2981.90789	0.99952
2978.05031	0.99976
2974.19273	1.00012
2970.33516	1.00023
2966.47758	1.00058
2962.62000	1.00048
2958.76242	1.00022
2954.90484	1.00039
2951.04727	1.00041
2947.18969	1.00039
2943.33211	1.00032
2939.47453	1.00020
2935.61695	1.00038
2931.75937	1.00060
2927.90180	1.00073
2924.04422	1.00050
2920.18664	1.00020
2916.32906	1.00050
2912.47148	1.00070
2908.61391	1.00045
2904.75633	1.00034
2900.89875	1.00042
2897.04117	1.00059
2893.18359	1.00051
2889.32602	1.00020
2885.46844	1.00048
2881.61086	1.00096
2877.75328	1.00072
2873.89570	1.00052
2870.03812	1.00076
2866.18055	1.00047
2862.32297	0.99997
2858.46539	1.00003
2854.60781	1.00002
2850.75023	1.00014
2846.89266	1.00079
2843.03508	1.00088
2839.17750	1.00045
2835.31992	1.00040
2831.46234	1.00053
2827.60477	1.00049
2823.74719	1.00045
2819.88961	1.00042
2816.03203	1.00040
2812.17445	1.00046
2808.31687	1.00028
2804.45930	1.00011
2800.60172	1.00025
2796.74414	1.00049
2792.88656	1.00073
2789.02898	1.00053
2785.17141	1.00025
2781.31383	1.00047
2777.45625	1.00048
2773.59867	1.00025
2769.74109	1.00015
2765.88352	0.99986
2762.02594	0.99981
2758.16836	1.00023
2754.31078	1.00034
2750.45320	1.00019
2746.59562	1.00050
2742.73805	1.00079
2738.88047	1.00044
2735.02289	1.00015
2731.16531	1.00003
2727.30773	1.00003
2723.45016	1.00041
2719.59258	1.00039
2715.73500	1.00027
2711.87742	1.00064
2708.01984	1.00071
2704.16227	1.00058
2700.30469	1.00043
2696.44711	1.00007
2692.58953	1.00008
2688.73195	1.00037
2684.87437	1.00049
2681.01680	1.00055
2677.15922	1.00056
2673.30164	1.00060
2669.44406	1.00057
2665.58648	1.00040
2661.72891	1.00062
2657.87133	1.00097
2654.01375	1.00055
2650.15617	0.99998
2646.29859	0.99985
2642.44102	0.99983
2638.58344	1.00001
2634.72586	1.00023
2630.86828	1.00010
2627.01070	1.00008
2623.15312	1.00028
2619.29555	1.00039
2615.43797	1.00043
2611.58039	1.00042
2607.72281	1.00042
2603.86523	1.00034
2600.00766	1.00008
2596.15008	1.00025
2592.29250	1.00067
2588.43492	1.00060
2584.57734	1.00040
2580.71977	1.00039
2576.86219	1.00036
2573.00461	1.00027
2569.14703	1.00024
2565.28945	1.00051
2561.43187	1.00065
2557.57430	1.00042
2553.71672	1.00033
2549.85914	1.00017
2546.00156	1.00001
2542.14398	1.00011
2538.28641	1.00018
2534.42883	1.00029
2530.57125	1.00040
2526.71367	1.00038
2522.85609	1.00049
2518.99852	1.00051
2515.14094	1.00035
2511.28336	1.00030
2507.42578	1.00041
2503.56820	1.00045
2499.71062	1.00051
2495.85305	1.00068
2491.99547	1.00072
2488.13789	1.00066
2484.28031	1.00061
2480.42273	1.00060
2476.56516	1.00036
2472.70758	1.00008
2468.85000	1.00038
2464.99242	1.00057
2461.13484	1.00031
2457.27727	1.00038
2453.41969	1.00063
2449.56211	1.00072
2445.70453	1.00068
2441.84695	1.00051
2437.98937	1.00044
2434.13180	1.00048
2430.27422	1.00040
2426.41664	1.00026
2422.55906	1.00037
2418.70148	1.00049
2414.84391	1.00018
2410.98633	0.99997
2407.12875	1.00019
2403.27117	1.00036
2399.41359	1.00041
2395.55602	1.00038
2391.69844	1.00006
2387.84086	0.99936
2383.98328	0.99807
2380.12570	0.99591
2376.26812	0.99237
2372.41055	0.98779
2368.55297	0.98403
2364.69539	0.98144
2360.83781	0.98090
2356.98023	0.98279
2353.12266	0.98462
2349.26508	0.98483
2345.40750	0.98324
2341.54992	0.98145
2337.69234	0.98265
2333.83477	0.98364
2329.97719	0.98405
2326.11961	0.98550
2322.26203	0.98783
2318.40445	0.99031
2314.54687	0.99197
2310.68930	0.99317
2306.83172	0.99494
2302.97414	0.99630
2299.11656	0.99684
2295.25898	0.99742
2291.40141	0.99804
2287.54383	0.99878
2283.68625	0.99941
2279.82867	0.99949
2275.97109	0.99952
2272.11352	0.99977
2268.25594	0.99983
2264.39836	0.99956
2260.54078	0.99930
2256.68320	0.99938
2252.82562	0.99972
2248.96805	1.00017
2245.11047	1.00050
2241.25289	1.00055
2237.39531	1.00056
2233.53773	1.00058
2229.68016	1.00035
2225.82258	1.00004
2221.96500	1.00022
2218.10742	1.00059
2214.24984	1.00046
2210.39227	1.00016
2206.53469	1.00017
2202.67711	1.00035
2198.81953	1.00047
2194.96195	1.00042
2191.10437	1.00046
2187.24680	1.00057
2183.38922	1.00046
2179.53164	1.00033
2175.67406	1.00043
2171.81648	1.00063
2167.95891	1.00057
2164.10133	1.00016
2160.24375	1.00002
2156.38617	1.00033
2152.52859	1.00047
2148.67102	1.00046
2144.81344	1.00059
2140.95586	1.00052
2137.09828	1.00032
2133.24070	1.00038
2129.38312	1.00040
2125.52555	1.00014
2121.66797	1.00006
2117.81039	1.00032
2113.95281	1.00039
2110.09523	1.00024
2106.23766	1.00035
2102.38008	1.00055
2098.52250	1.00042
2094.66492	1.00040
2090.80734	1.00051
2086.94977	1.00041
2083.09219	1.00044
2079.23461	1.00043
2075.37703	1.00025
2071.51945	1.00038
2067.66187	1.00055
2063.80430	1.00057
2059.94672	1.00069
2056.08914	1.00078
2052.23156	1.00049
2048.37398	1.00013
2044.51641	1.00016
2040.65883	1.00043
2036.80125	1.00061
2032.94367	1.00066
2029.08609	1.00065
2025.22852	1.00059
2021.37094	1.00046
2017.51336	1.00031
2013.65578	1.00024
2009.79820	1.00028
2005.94062	1.00038
2002.08305	1.00050
1998.22547	1.00052
1994.36789	1.00038
1990.51031	1.00024
1986.65273	1.00033
1982.79516	1.00045
1978.93758	1.00039
1975.08000	1.00034
1971.22242	1.00040
1967.36484	1.00044
1963.50727	1.00052
1959.64969	1.00049
1955.79211	1.00038
1951.93453	1.00029
1948.07695	1.00016
1944.21937	1.00022
1940.36180	1.00055
1936.50422	1.00062
1932.64664	1.00036
1928.78906	1.00021
1924.93148	1.00042
1921.07391	1.00058
1917.21633	1.00041
1913.35875	1.00038
1909.50117	1.00051
1905.64359	1.00057
1901.78602	1.00044
1897.92844	1.00019
1894.07086	1.00011
1890.21328	1.00020
1886.35570	1.00029
1882.49812	1.00037
1878.64055	1.00039
1874.78297	1.00032
1870.92539	1.00026
1867.06781	1.00046
1863.21023	1.00061
1859.35266	1.00044
1855.49508	1.00023
1851.63750	1.00025
1847.77992	1.00029
1843.92234	1.00010
1840.06477	1.00008
1836.20719	1.00034
1832.34961	1.00055
1828.49203	1.00037
1824.63445	0.99996
1820.77687	1.00012
1816.91930	1.00049
1813.06172	1.00053
1809.20414	1.00055
1805.34656	1.00050
1801.48898	1.00035
1797.63141	1.00028
1793.77383	1.00022
1789.91625	1.00034
1786.05867	1.00042
1782.20109	1.00044
1778.34352	1.00057
1774.48594	1.00050
1770.62836	1.00025
1766.77078	1.00026
1762.91320	1.00032
1759.05562	1.00020
1755.19805	0.99999
1751.34047	0.99985
1747.48289	0.99989
1743.62531	0.99984
1739.76773	0.99988
1735.91016	1.00026
1732.05258	1.00044
1728.19500	1.00034
1724.33742	1.00027
1720.47984	1.00021
1716.62227	1.00015
1712.76469	1.00037
1708.90711	1.00075
1705.04953	1.00067
1701.19195	1.00006
1697.33437	1.00022
1693.47680	1.00058
1689.61922	1.00046
1685.76164	1.00023
1681.90406	1.00020
1678.04648	1.00017
1674.18891	1.00027
1670.33133	1.00022
1666.47375	1.00000
1662.61617	1.00009
1658.75859	1.00009
1654.90102	1.00015
1651.04344	1.00044
1647.18586	1.00025
1643.32828	1.00034
1639.47070	1.00035
1635.61312	1.00012
1631.75555	1.00028
1627.89797	1.00040
1624.04039	1.00041
1620.18281	1.00052
1616.32523	1.00047
1612.46766	1.00031
1608.61008	1.00038
1604.75250	1.00049
1600.89492	1.00041
1597.03734	1.00044
1593.17977	1.00053
1589.32219	1.00050
1585.46461	1.00043
1581.60703	1.00038
1577.74945	1.00026
1573.89187	0.99992
1570.03430	1.00005
1566.17672	1.00048
1562.31914	1.00041
1558.46156	0.99997
1554.60398	0.99990
1550.74641	1.00024
1546.88883	1.00047
1543.03125	1.00030
1539.17367	1.00042
1535.31609	1.00048
1531.45852	1.00023
1527.60094	1.00010
1523.74336	1.00006
1519.88578	1.00008
1516.02820	1.00023
1512.17062	1.00033
1508.31305	1.00025
1504.45547	1.00024
1500.59789	1.00035
1496.74031	1.00038
1492.88273	1.00025
1489.02516	1.00004
1485.16758	1.00023
1481.31000	1.00041
1477.45242	1.00024
1473.59484	1.00021
1469.73727	1.00034
1465.87969	1.00042
1462.02211	1.00040
1458.16453	1.00000
1454.30695	1.00002
1450.44937	1.00005
1446.59180	0.99998
1442.73422	1.00043
1438.87664	1.00081
1435.01906	1.00075
1431.16148	1.00054
1427.30391	1.00030
1423.44633	1.00027
1419.58875	1.00038
1415.73117	1.00041
1411.87359	1.00046
1408.01602	1.00044
1404.15844	1.00046
1400.30086	1.00047
1396.44328	1.00022
1392.58570	1.00021
1388.72812	1.00032
1384.87055	1.00005
1381.01297	1.00000
1377.15539	1.00035
1373.29781	1.00039
1369.44023	1.00025
1365.58266	1.00022
1361.72508	1.00009
1357.86750	1.00011
1354.00992	1.00018
1350.15234	1.00015
1346.29477	1.00020
1342.43719	1.00034
1338.57961	1.00043
1334.72203	1.00042
1330.86445	1.00041
1327.00687	1.00043
1323.14930	1.00052
1319.29172	1.00049
1315.43414	1.00034
1311.57656	1.00046
1307.71898	1.00057
1303.86141	1.00035
1300.00383	1.00021
1296.14625	1.00022
1292.28867	1.00023
1288.43109	1.00042
1284.57352	1.00056
1280.71594	1.00037
1276.85836	1.00019
1273.00078	1.00024
1269.14320	1.00031
1265.28562	1.00029
1261.42805	1.00031
1257.57047	1.00033
1253.71289	1.00029
1249.85531	1.00027
1245.99773	1.00022
1242.14016	1.00036
1238.28258	1.00057
1234.42500	1.00047
1230.56742	1.00032
1226.70984	1.00027
1222.85227	1.00023
1218.99469	1.00030
1215.13711	1.00031
1211.27953	1.00037
1207.42195	1.00054
1203.56437	1.00056
1199.70680	1.00041
1195.84922	1.00028
1191.99164	1.00040
1188.13406	1.00064
1184.27648	1.00055
1180.41891	1.00027
1176.56133	1.00019
1172.70375	1.00031
1168.84617	1.00040
1164.98859	1.00036
1161.13102	1.00037
1157.27344	1.00046
1153.41586	1.00048
1149.55828	1.00034
1145.70070	1.00029
1141.84312	1.00051
1137.98555	1.00064
1134.12797	1.00055
1130.27039	1.00043
1126.41281	1.00032
1122.55523	1.00021
1118.69766	1.00029
1114.84008	1.00041
1110.98250	1.00032
1107.12492	1.00031
1103.26734	1.00050
1099.40977	1.00054
1095.55219	1.00044
1091.69461	1.00039
1087.83703	1.00040
1083.97945	1.00042
1080.12187	1.00040
1076.26430	1.00025
1072.40672	1.00025
1068.54914	1.00051
1064.69156	1.00031
1060.83398	1.00006
1056.97641	1.00032
1053.11883	1.00047
1049.26125	1.00051
1045.40367	1.00045
1041.54609	1.00024
1037.68852	1.00011
1033.83094	1.00014
1029.97336	1.00044
1026.11578	1.00056
1022.25820	1.00038
1018.40062	1.00034
1014.54305	1.00037
1010.68547	1.00041
1006.82789	1.00050
1002.97031	1.00072
999.11273	1.00070
995.25516	1.00035
991.39758	1.00027
987.54000	1.00041
983.68242	1.00060
979.82484	1.00068
975.96727	1.00062
972.10969	1.00060
968.25211	1.00038
964.39453	1.00021
960.53695	1.00011
956.67937	1.00001
952.82180	1.00019
948.96422	1.00025
945.10664	1.00011
941.24906	1.00015
937.39148	1.00034
933.53391	1.00042
929.67633	1.00035
925.81875	1.00037
921.96117	1.00040
918.10359	1.00056
914.24602	1.00074
910.38844	1.00061
906.53086	1.00058
902.67328	1.00066
898.81570	1.00051
894.95812	1.00028
891.10055	1.00031
887.24297	1.00068
883.38539	1.00096
879.52781	1.00092
875.67023	1.00098
871.81266	1.00117
867.95508	1.00110
864.09750	1.00091
860.23992	1.00051
856.38234	1.00015
852.52477	1.00015
848.66719	1.00013
844.80961	1.00056
840.95203	1.00094
837.09445	1.00040
833.23687	0.99977
829.37930	0.99939
825.52172	0.99957
821.66414	1.00019
817.80656	1.00037
813.94898	1.00037
810.09141	1.00042
806.23383	1.00013
802.37625	0.99958
798.51867	0.99957
794.66109	1.00010
790.80352	1.00035
786.94594	1.00051
783.08836	1.00075
779.23078	1.00098
775.37320	1.00104
771.51562	1.00089
767.65805	1.00077
763.80047	1.00054
759.94289	1.00027
756.08531	1.00009
752.22773	1.00029
748.37016	1.00071
744.51258	1.00033
740.65500	0.99981
736.79742	1.00006
732.93984	1.00049
729.08227	1.00089
725.22469	1.00082
721.36711	1.00013
717.50953	0.99970
713.65195	0.99997
709.79437	1.00027
705.93680	0.99993
702.07922	0.99966
698.22164	0.99985
694.36406	0.99931
690.50648	0.99827
686.64891	0.99780
682.79133	0.99752
678.93375	0.99786
675.07617	0.99826
671.21859	0.99737
667.36102	0.99703
663.50344	0.99792
659.64586	0.99817
655.78828	0.99780
651.93070	0.99764
648.07312	0.99828
644.21555	0.99848
640.35797	0.99855
636.50039	0.99970
632.64281	1.00029
628.78523	1.00012
624.92766	1.00018
621.07008	0.99976
617.21250	0.99911
613.35492	0.99937
609.49734	0.99992
605.63977	0.99991
601.78219	0.99984
597.92461	0.99953
594.06703	0.99910
590.20945	0.99965
586.35187	1.00015
582.49430	0.99980
578.63672	1.00039
574.77914	1.00197
570.92156	1.00224
567.06398	1.00182
563.20641	1.00138
559.34883	1.00087
555.49125	1.00204
551.63367	1.00209
547.77609	0.99965
543.91852	0.99889
540.06094	1.00049
536.20336	1.00219
532.34578	1.00043
528.48820	0.99880
524.63062	1.00118
520.77305	1.00136
516.91547	1.00007
513.05789	1.00018
509.20031	1.00033
505.34273	1.00084
501.48516	0.99927
497.62758	0.99857
493.77000	1.00052
489.91242	1.00086
486.05484	1.00025
482.19727	1.00035
478.33969	1.00140
474.48211	1.00237
470.62453	1.00041
466.76695	0.99898
462.90937	0.99979
459.05180	1.00127
455.19422	1.00381
451.33664	1.00515
447.47906	1.00385
443.62148	1.00034
439.76391	1.00300
435.90633	1.00961
432.04875	1.00665
428.19117	1.00081
424.33359	0.99922
420.47602	0.99869
416.61844	0.99435
412.76086	0.99768
408.90328	1.00512
405.04570	0.99949
401.18812	1.08519
397.33055	1.34287
393.47297	1.14848
389.61539	0.99040
385.75781	1.00404
381.90023	1.00657
378.04266	0.98714
374.18508	1.00675
370.32750	1.02418
366.46992	1.01583
362.61234	0.99844
358.75477	1.02180
354.89719	1.03696
351.03961	1.02436
347.18203	1.05709
343.32445	1.06910
339.46687	1.04162
335.60930	0.94622
331.75172	0.94264
327.89414	1.15527
324.03656	1.49952
320.17898	1.32483
316.32141	1.53729
312.46383	1.53729
308.60625	1.53729
304.74867	1.53729
300.89109	1.53729
