14998.26375	-1.56439
14994.40617	-1.06781
14990.54859	-0.07120
14986.69102	0.19192
14982.83344	0.19192
14978.97586	0.19192
14975.11828	0.19192
14971.26070	0.26445
14967.40312	0.26445
14963.54555	0.26445
14959.68797	0.26445
14955.83039	-0.31845
14951.97281	-0.08837
14948.11523	-0.14941
14944.25766	-0.41069
14940.40008	2.26563
14936.54250	2.26563
14932.68492	2.26563
14928.82734	0.33721
14924.96977	0.31228
14921.11219	0.92629
14917.25461	3.19595
14913.39703	1.14535
14909.53945	-0.10864
14905.68187	-0.10864
14901.82430	0.43674
14897.96672	0.49479
14894.10914	0.97039
14890.25156	0.97039
14886.39398	1.01625
14882.53641	1.04702
14878.67883	0.92751
14874.82125	0.76156
14870.96367	0.86550
14867.10609	1.18176
14863.24852	1.36675
14859.39094	0.96885
14855.53336	1.59248
14851.67578	1.59248
14847.81820	2.07524
14843.96062	1.14500
14840.10305	0.98687
14836.24547	1.13467
14832.38789	1.12527
14828.53031	1.12527
14824.67273	1.12527
14820.81516	1.52545
14816.95758	1.52545
14813.10000	1.52545
14809.24242	0.38308
14805.38484	0.38308
14801.52727	0.38308
14797.66969	0.38308
14793.81211	0.38308
14789.95453	0.38308
14786.09695	0.38308
14782.23937	0.38308
14778.38180	0.38308
14774.52422	0.38308
14770.66664	0.38308
14766.80906	0.38308
14762.95148	0.38308
14759.09391	0.38308
14755.23633	0.25255
14751.37875	0.33665
14747.52117	0.03691
14743.66359	0.09425
14739.80602	1.16181
14735.94844	0.73663
14732.09086	0.48778
14728.23328	0.63744
14724.37570	0.79440
14720.51812	0.79440
14716.66055	0.79440
14712.80297	0.54458
14708.94539	-0.56954
14705.08781	-1.04972
14701.23023	0.10158
14697.37266	0.39030
14693.51508	-0.59768
14689.65750	-0.59768
14685.79992	-0.59768
14681.94234	-0.59768
14678.08477	1.34675
14674.22719	0.86516
14670.36961	0.96766
14666.51203	1.30478
14662.65445	1.30478
14658.79687	1.30478
14654.93930	1.30478
14651.08172	1.27168
14647.22414	1.05027
14643.36656	0.92339
14639.50898	0.43373
14635.65141	0.03661
14631.79383	-0.31790
14627.93625	-0.68203
14624.07867	-0.68203
14620.22109	0.63033
14616.36352	0.18289
14612.50594	0.68762
14608.64836	3.77462
14604.79078	3.77462
14600.93320	3.77462
14597.07562	1.39543
14593.21805	0.68264
14589.36047	0.65970
14585.50289	0.46889
14581.64531	-0.47047
14577.78773	-0.13076
14573.93016	0.06694
14570.07258	0.07441
14566.21500	0.10941
14562.35742	0.06007
14558.49984	0.89269
14554.64227	1.09293
14550.78469	2.22754
14546.92711	2.22754
14543.06953	2.22754
14539.21195	2.22754
14535.35437	2.22754
14531.49680	1.45268
14527.63922	0.89870
14523.78164	0.89870
14519.92406	-1.07992
14516.06648	-0.84234
14512.20891	-0.51569
14508.35133	-0.30698
14504.49375	-0.33478
14500.63617	-0.21974
14496.77859	0.07583
14492.92102	0.85827
14489.06344	1.85993
14485.20586	-0.03955
14481.34828	-0.24749
14477.49070	-0.24749
14473.63312	-0.24749
14469.77555	2.80647
14465.91797	0.86230
14462.06039	0.86230
14458.20281	0.86230
14454.34523	0.86230
14450.48766	0.86230
14446.63008	0.86230
14442.77250	3.40039
14438.91492	3.40039
14435.05734	3.40039
14431.19977	0.05100
14427.34219	0.05100
14423.48461	0.05100
14419.62703	0.05100
14415.76945	2.03592
14411.91187	0.02001
14408.05430	-0.57573
14404.19672	-0.57573
14400.33914	-0.57573
14396.48156	-0.57573
14392.62398	-0.57573
14388.76641	0.65941
14384.90883	0.97015
14381.05125	0.97015
14377.19367	0.34558
14373.33609	0.18082
14369.47852	-0.15723
14365.62094	0.76878
14361.76336	1.60928
14357.90578	0.16535
14354.04820	-0.18216
14350.19062	0.27360
14346.33305	-0.10789
14342.47547	-1.99502
14338.61789	-1.99502
14334.76031	-1.99502
14330.90273	0.84052
14327.04516	0.81112
14323.18758	0.14518
14319.33000	0.27529
14315.47242	1.38568
14311.61484	1.38568
14307.75727	1.38568
14303.89969	-1.53667
14300.04211	0.55493
14296.18453	2.22156
14292.32695	2.22156
14288.46937	2.22156
14284.61180	0.85501
14280.75422	0.85624
14276.89664	0.85624
14273.03906	0.85624
14269.18148	0.85624
14265.32391	0.85624
14261.46633	0.85624
14257.60875	0.85624
14253.75117	1.45385
14249.89359	0.53867
14246.03602	-0.45060
14242.17844	-0.45060
14238.32086	-0.45060
14234.46328	-0.45060
14230.60570	-0.45060
14226.74812	1.87160
14222.89055	1.87160
14219.03297	1.87160
14215.17539	0.65090
14211.31781	0.43855
14207.46023	0.40078
14203.60266	0.40078
14199.74508	4.91513
14195.88750	1.82864
14192.02992	1.82864
14188.17234	1.82864
14184.31477	1.82864
14180.45719	1.82864
14176.59961	1.04468
14172.74203	1.64356
14168.88445	1.64356
14165.02687	1.64356
14161.16930	2.91615
14157.31172	4.96584
14153.45414	4.96584
14149.59656	0.46098
14145.73898	-0.55247
14141.88141	-0.36069
14138.02383	1.46596
14134.16625	1.55703
14130.30867	1.55703
14126.45109	1.55703
14122.59352	1.55703
14118.73594	1.55703
14114.87836	1.55703
14111.02078	1.55703
14107.16320	-0.25581
14103.30562	1.32042
14099.44805	1.32042
14095.59047	1.32042
14091.73289	0.32047
14087.87531	4.93356
14084.01773	4.93356
14080.16016	3.23832
14076.30258	1.87534
14072.44500	1.31172
14068.58742	1.31172
14064.72984	1.31172
14060.87227	2.45293
14057.01469	4.39849
14053.15711	4.39849
14049.29953	0.13968
14045.44195	0.32856
14041.58437	0.32856
14037.72680	0.32856
14033.86922	0.32856
14030.01164	0.32856
14026.15406	-2.77383
14022.29648	-3.10162
14018.43891	0.10530
14014.58133	0.52439
14010.72375	0.47143
14006.86617	0.59634
14003.00859	0.92658
13999.15102	0.91653
13995.29344	-0.07342
13991.43586	-0.07342
13987.57828	-0.07342
13983.72070	-0.07342
13979.86312	1.26905
13976.00555	1.00453
13972.14797	1.51295
13968.29039	1.51295
13964.43281	1.51295
13960.57523	1.51295
13956.71766	1.51295
13952.86008	1.51295
13949.00250	1.51295
13945.14492	-0.62743
13941.28734	1.12964
13937.42977	0.97384
13933.57219	0.97384
13929.71461	0.97384
13925.85703	0.97384
13921.99945	0.97384
13918.14187	0.97384
13914.28430	0.97384
13910.42672	0.97384
13906.56914	4.44237
13902.71156	0.92567
13898.85398	1.28895
13894.99641	0.54065
13891.13883	-0.09249
13887.28125	-0.04799
13883.42367	-0.31589
13879.56609	-0.31589
13875.70852	-0.31589
13871.85094	0.17221
13867.99336	-0.00877
13864.13578	0.15255
13860.27820	1.10267
13856.42062	1.10267
13852.56305	1.10267
13848.70547	1.10267
13844.84789	1.10267
13840.99031	0.41655
13837.13273	0.07371
13833.27516	-0.65920
13829.41758	0.47208
13825.56000	0.47208
13821.70242	2.68252
13817.84484	0.91829
13813.98727	0.17632
13810.12969	-0.23936
13806.27211	2.11796
13802.41453	2.11796
13798.55695	2.11796
13794.69937	2.11796
13790.84180	2.11796
13786.98422	-0.57470
13783.12664	-0.73076
13779.26906	-0.73076
13775.41148	-0.73076
13771.55391	-1.07056
13767.69633	0.27677
13763.83875	1.26026
13759.98117	0.26640
13756.12359	-0.48449
13752.26602	0.91249
13748.40844	0.91249
13744.55086	0.91249
13740.69328	0.79340
13736.83570	0.35646
13732.97812	0.42068
13729.12055	0.46329
13725.26297	-0.11704
13721.40539	-0.51445
13717.54781	-0.63724
13713.69023	-0.64139
13709.83266	-0.20034
13705.97508	-0.20034
13702.11750	-0.20034
13698.25992	-0.20034
13694.40234	1.81046
13690.54477	2.44119
13686.68719	2.13207
13682.82961	2.13207
13678.97203	2.13207
13675.11445	1.37797
13671.25687	0.24201
13667.39930	0.29996
13663.54172	0.99923
13659.68414	0.99923
13655.82656	-2.13050
13651.96898	-2.13050
13648.11141	0.53494
13644.25383	0.00802
13640.39625	0.11988
13636.53867	-0.18086
13632.68109	-0.06715
13628.82352	0.14159
13624.96594	0.26953
13621.10836	-0.02805
13617.25078	-0.29637
13613.39320	0.53663
13609.53562	0.83826
13605.67805	0.98815
13601.82047	0.98815
13597.96289	0.98815
13594.10531	0.98815
13590.24773	0.98815
13586.39016	0.98815
13582.53258	0.98815
13578.67500	0.57544
13574.81742	0.29421
13570.95984	-0.20970
13567.10227	-0.22524
13563.24469	0.96306
13559.38711	2.23216
13555.52953	2.23216
13551.67195	2.23216
13547.81437	0.66621
13543.95680	0.59157
13540.09922	0.33489
13536.24164	0.64690
13532.38406	0.55619
13528.52648	-0.15846
13524.66891	0.85050
13520.81133	1.03254
13516.95375	1.26563
13513.09617	1.39703
13509.23859	0.22033
13505.38102	0.62282
13501.52344	0.62282
13497.66586	0.62282
13493.80828	0.62282
13489.95070	-0.81461
13486.09312	0.02893
13482.23555	0.53716
13478.37797	0.98546
13474.52039	1.61732
13470.66281	2.20033
13466.80523	-0.34794
13462.94766	-0.73916
13459.09008	-0.73916
13455.23250	-0.73916
13451.37492	4.83060
13447.51734	4.83060
13443.65977	0.35457
13439.80219	0.35457
13435.94461	0.35457
13432.08703	0.37013
13428.22945	0.41992
13424.37187	1.15365
13420.51430	1.15365
13416.65672	-0.19907
13412.79914	0.08745
13408.94156	0.60628
13405.08398	1.16617
13401.22641	2.93967
13397.36883	2.93967
13393.51125	2.93967
13389.65367	0.16494
13385.79609	0.66808
13381.93852	0.56609
13378.08094	-0.03706
13374.22336	-0.16058
13370.36578	-0.07854
13366.50820	-0.28986
13362.65062	-0.33137
13358.79305	0.59622
13354.93547	1.42334
13351.07789	0.61595
13347.22031	-1.09624
13343.36273	-3.67982
13339.50516	-3.67982
13335.64758	-3.67982
13331.79000	-0.31186
13327.93242	-0.06421
13324.07484	0.47092
13320.21727	0.47092
13316.35969	0.47092
13312.50211	1.55702
13308.64453	0.02227
13304.78695	1.96907
13300.92937	1.91330
13297.07180	0.64075
13293.21422	0.12378
13289.35664	0.21999
13285.49906	0.21999
13281.64148	0.21999
13277.78391	2.31521
13273.92633	2.86284
13270.06875	2.32531
13266.21117	0.98709
13262.35359	0.23567
13258.49602	-0.01518
13254.63844	0.57286
13250.78086	1.21707
13246.92328	0.13710
13243.06570	0.05582
13239.20812	0.44670
13235.35055	0.17047
13231.49297	0.17047
13227.63539	0.17047
13223.77781	0.07297
13219.92023	0.16308
13216.06266	0.16308
13212.20508	0.16308
13208.34750	0.16308
13204.48992	0.16308
13200.63234	0.16308
13196.77477	-1.74896
13192.91719	-1.30729
13189.05961	-0.97166
13185.20203	-0.19960
13181.34445	0.75421
13177.48687	0.75421
13173.62930	0.75421
13169.77172	0.75421
13165.91414	0.75421
13162.05656	0.75421
13158.19898	0.75421
13154.34141	0.75421
13150.48383	0.75421
13146.62625	0.75421
13142.76867	0.75421
13138.91109	0.75421
13135.05352	0.75421
13131.19594	0.75421
13127.33836	0.75421
13123.48078	0.28475
13119.62320	0.77790
13115.76562	0.07252
13111.90805	1.55613
13108.05047	1.02476
13104.19289	-0.20976
13100.33531	-0.81340
13096.47773	-0.81340
13092.62016	-0.55717
13088.76258	-0.55717
13084.90500	-0.55717
13081.04742	0.88721
13077.18984	1.13232
13073.33227	0.78157
13069.47469	2.64544
13065.61711	2.64544
13061.75953	2.64544
13057.90195	2.64544
13054.04437	1.46855
13050.18680	1.33009
13046.32922	1.33009
13042.47164	1.33009
13038.61406	1.33009
13034.75648	1.33009
13030.89891	0.87971
13027.04133	0.99107
13023.18375	0.62001
13019.32617	0.62001
13015.46859	0.62001
13011.61102	0.60957
13007.75344	0.69190
13003.89586	0.69190
13000.03828	0.69190
12996.18070	0.61849
12992.32312	1.44023
12988.46555	1.44023
12984.60797	1.44023
12980.75039	1.10551
12976.89281	-0.23595
12973.03523	-0.35866
12969.17766	-0.35866
12965.32008	-0.35866
12961.46250	-0.35866
12957.60492	-0.35866
12953.74734	-0.35866
12949.88977	0.59315
12946.03219	-2.29278
12942.17461	-2.29278
12938.31703	-4.35555
12934.45945	-0.30340
12930.60187	0.14525
12926.74430	-1.36047
12922.88672	-0.64152
12919.02914	0.28807
12915.17156	0.42660
12911.31398	1.38386
12907.45641	1.38386
12903.59883	1.38386
12899.74125	0.92743
12895.88367	2.72376
12892.02609	1.29456
12888.16852	1.29456
12884.31094	1.29456
12880.45336	1.29456
12876.59578	1.29456
12872.73820	3.93598
12868.88062	0.21461
12865.02305	0.02641
12861.16547	0.02641
12857.30789	1.08741
12853.45031	0.18970
12849.59273	0.00583
12845.73516	0.28819
12841.87758	0.05448
12838.02000	-0.28905
12834.16242	0.33248
12830.30484	1.30170
12826.44727	1.30170
12822.58969	1.30170
12818.73211	1.30170
12814.87453	1.30170
12811.01695	0.09821
12807.15937	0.31593
12803.30180	0.06689
12799.44422	0.25168
12795.58664	0.25168
12791.72906	0.25168
12787.87148	0.25168
12784.01391	0.25168
12780.15633	0.47245
12776.29875	0.58889
12772.44117	0.13084
12768.58359	-1.33877
12764.72602	0.37631
12760.86844	0.31012
12757.01086	0.15001
12753.15328	0.15001
12749.29570	0.15001
12745.43812	0.15001
12741.58055	0.15001
12737.72297	0.60715
12733.86539	0.13213
12730.00781	0.15899
12726.15023	0.65997
12722.29266	0.65997
12718.43508	0.65997
12714.57750	0.65997
12710.71992	0.65997
12706.86234	0.65997
12703.00477	0.65997
12699.14719	0.05228
12695.28961	0.05228
12691.43203	1.16542
12687.57445	1.27303
12683.71687	1.27303
12679.85930	1.27303
12676.00172	1.27303
12672.14414	1.27303
12668.28656	1.27303
12664.42898	1.27303
12660.57141	1.27303
12656.71383	1.27303
12652.85625	0.82503
12648.99867	-1.43350
12645.14109	-1.02278
12641.28352	-0.61607
12637.42594	-1.30711
12633.56836	-1.30711
12629.71078	-0.04214
12625.85320	-0.04214
12621.99562	-0.04214
12618.13805	-0.04214
12614.28047	-0.04214
12610.42289	-5.96769
12606.56531	-5.37905
12602.70773	-2.51280
12598.85016	-0.89490
12594.99258	-0.89490
12591.13500	-0.89490
12587.27742	0.92522
12583.41984	1.00101
12579.56227	1.70983
12575.70469	1.22141
12571.84711	0.34357
12567.98953	-0.26161
12564.13195	-0.63695
12560.27437	-0.69808
12556.41680	0.24583
12552.55922	1.44834
12548.70164	1.29825
12544.84406	1.29825
12540.98648	1.29825
12537.12891	1.29825
12533.27133	-4.01326
12529.41375	-1.18824
12525.55617	-1.18824
12521.69859	-1.18824
12517.84102	-1.65407
12513.98344	-1.59372
12510.12586	-1.59372
12506.26828	-1.59372
12502.41070	-0.67037
12498.55312	-0.01502
12494.69555	-0.47182
12490.83797	-0.53039
12486.98039	0.07736
12483.12281	0.83529
12479.26523	0.34023
12475.40766	0.17222
12471.55008	0.17222
12467.69250	0.17222
12463.83492	0.17222
12459.97734	0.17222
12456.11977	0.17222
12452.26219	0.17222
12448.40461	0.17222
12444.54703	0.17222
12440.68945	0.17222
12436.83187	0.17222
12432.97430	0.17222
12429.11672	0.17222
12425.25914	0.17222
12421.40156	1.74627
12417.54398	0.50367
12413.68641	0.50367
12409.82883	0.23580
12405.97125	0.95699
12402.11367	0.95699
12398.25609	0.95699
12394.39852	-0.87234
12390.54094	-0.56856
12386.68336	1.14035
12382.82578	1.14035
12378.96820	1.14035
12375.11062	1.14035
12371.25305	1.14035
12367.39547	-0.11021
12363.53789	0.15920
12359.68031	0.15920
12355.82273	0.15920
12351.96516	0.15920
12348.10758	-1.14081
12344.25000	0.78471
12340.39242	1.34857
12336.53484	1.11574
12332.67727	-0.10866
12328.81969	-0.63563
12324.96211	2.37965
12321.10453	2.37965
12317.24695	2.37965
12313.38937	2.37965
12309.53180	0.46764
12305.67422	3.35299
12301.81664	3.35299
12297.95906	-0.79420
12294.10148	0.27285
12290.24391	0.27285
12286.38633	0.27285
12282.52875	0.17896
12278.67117	-0.95510
12274.81359	-1.32591
12270.95602	-1.32591
12267.09844	-1.32591
12263.24086	-1.32591
12259.38328	1.20029
12255.52570	1.24731
12251.66812	1.24731
12247.81055	1.72596
12243.95297	0.16014
12240.09539	0.42974
12236.23781	0.72730
12232.38023	0.04328
12228.52266	-0.77212
12224.66508	-0.59284
12220.80750	0.37177
12216.94992	0.65266
12213.09234	0.83626
12209.23477	1.19679
12205.37719	1.43516
12201.51961	1.43516
12197.66203	1.43516
12193.80445	0.97351
12189.94687	0.46382
12186.08930	0.69765
12182.23172	0.45841
12178.37414	0.91478
12174.51656	0.91478
12170.65898	1.55422
12166.80141	5.45142
12162.94383	0.36552
12159.08625	0.32859
12155.22867	0.32859
12151.37109	1.44192
12147.51352	1.05546
12143.65594	1.05546
12139.79836	1.05546
12135.94078	1.05546
12132.08320	1.05546
12128.22562	0.72912
12124.36805	0.48233
12120.51047	0.54080
12116.65289	0.90190
12112.79531	0.23492
12108.93773	-0.68208
12105.08016	-1.89990
12101.22258	-2.24024
12097.36500	-2.21666
12093.50742	1.58508
12089.64984	1.91346
12085.79227	1.67193
12081.93469	2.38850
12078.07711	1.08264
12074.21953	-3.10857
12070.36195	-3.10857
12066.50437	-3.10857
12062.64680	1.02768
12058.78922	0.72596
12054.93164	0.72596
12051.07406	0.72596
12047.21648	1.12901
12043.35891	1.98421
12039.50133	1.98421
12035.64375	0.11381
12031.78617	0.61640
12027.92859	0.61640
12024.07102	0.61640
12020.21344	0.61640
12016.35586	0.61640
12012.49828	0.73483
12008.64070	0.51212
12004.78312	0.17278
12000.92555	-0.14819
11997.06797	-0.14819
11993.21039	-0.14819
11989.35281	0.60774
11985.49523	0.59847
11981.63766	0.72565
11977.78008	-0.59330
11973.92250	-0.18034
11970.06492	0.71600
11966.20734	0.71600
11962.34977	-1.33426
11958.49219	-1.33426
11954.63461	-1.33426
11950.77703	-0.39332
11946.91945	-0.39332
11943.06187	-0.39332
11939.20430	1.20207
11935.34672	0.85636
11931.48914	1.76332
11927.63156	0.80814
11923.77398	0.30000
11919.91641	0.30790
11916.05883	0.82196
11912.20125	2.11317
11908.34367	2.11317
11904.48609	3.57738
11900.62852	0.93799
11896.77094	0.62317
11892.91336	0.62317
11889.05578	-1.37228
11885.19820	-1.37228
11881.34062	3.08194
11877.48305	4.25211
11873.62547	4.25211
11869.76789	4.25211
11865.91031	4.25211
11862.05273	4.25211
11858.19516	4.25211
11854.33758	4.25211
11850.48000	4.25211
11846.62242	0.43232
11842.76484	0.43232
11838.90727	0.43232
11835.04969	0.52115
11831.19211	0.68932
11827.33453	0.50052
11823.47695	-0.20510
11819.61937	-0.13176
11815.76180	0.85242
11811.90422	0.85242
11808.04664	0.85242
11804.18906	0.85242
11800.33148	0.85242
11796.47391	0.85242
11792.61633	0.85242
11788.75875	0.85242
11784.90117	0.85242
11781.04359	0.85242
11777.18602	0.85242
11773.32844	0.85242
11769.47086	-1.02772
11765.61328	-0.08049
11761.75570	1.36647
11757.89812	1.36647
11754.04055	1.36647
11750.18297	1.36647
11746.32539	1.36647
11742.46781	1.36647
11738.61023	-0.09722
11734.75266	-0.17804
11730.89508	-0.85378
11727.03750	-0.85378
11723.17992	-0.85378
11719.32234	-0.85378
11715.46477	-0.39843
11711.60719	0.05064
11707.74961	0.05064
11703.89203	0.05064
11700.03445	0.68130
11696.17687	0.68130
11692.31930	0.68130
11688.46172	0.68130
11684.60414	0.16463
11680.74656	-0.48916
11676.88898	-0.48916
11673.03141	-0.48916
11669.17383	-0.09224
11665.31625	0.29289
11661.45867	0.33247
11657.60109	3.16399
11653.74352	3.16399
11649.88594	1.80917
11646.02836	1.53845
11642.17078	1.78549
11638.31320	0.58563
11634.45562	0.15500
11630.59805	0.53936
11626.74047	0.15159
11622.88289	-0.29623
11619.02531	0.30992
11615.16773	-0.13887
11611.31016	-1.26780
11607.45258	-1.26780
11603.59500	-1.26780
11599.73742	-1.26780
11595.87984	-1.26780
11592.02227	-1.26780
11588.16469	-1.26780
11584.30711	-0.40260
11580.44953	0.72893
11576.59195	0.72893
11572.73437	0.72893
11568.87680	0.72893
11565.01922	0.72893
11561.16164	-0.17185
11557.30406	0.45918
11553.44648	0.45918
11549.58891	0.45918
11545.73133	0.45918
11541.87375	0.05757
11538.01617	0.22772
11534.15859	0.22772
11530.30102	-0.31763
11526.44344	0.66487
11522.58586	0.66487
11518.72828	0.66487
11514.87070	1.21878
11511.01312	2.88633
11507.15555	2.02211
11503.29797	0.39859
11499.44039	-0.44598
11495.58281	-0.44598
11491.72523	-0.44598
11487.86766	-0.44598
11484.01008	1.15225
11480.15250	0.94724
11476.29492	0.94724
11472.43734	0.94724
11468.57977	0.94724
11464.72219	0.94724
11460.86461	0.94724
11457.00703	0.94724
11453.14945	-0.84995
11449.29187	0.37252
11445.43430	0.62839
11441.57672	0.62839
11437.71914	-0.14475
11433.86156	1.28384
11430.00398	1.28384
11426.14641	1.28384
11422.28883	1.28384
11418.43125	1.28384
11414.57367	1.28384
11410.71609	1.28384
11406.85852	1.28384
11403.00094	1.28384
11399.14336	1.28384
11395.28578	1.45199
11391.42820	1.18301
11387.57062	1.18301
11383.71305	1.18301
11379.85547	1.18301
11375.99789	1.18301
11372.14031	1.18301
11368.28273	1.18301
11364.42516	1.18301
11360.56758	1.67148
11356.71000	1.67148
11352.85242	0.37915
11348.99484	-0.03441
11345.13727	-0.62181
11341.27969	-0.32722
11337.42211	0.72920
11333.56453	1.36412
11329.70695	0.37860
11325.84937	-1.19463
11321.99180	-0.93181
11318.13422	0.71015
11314.27664	0.75318
11310.41906	0.42773
11306.56148	0.79674
11302.70391	0.64803
11298.84633	-0.30244
11294.98875	-0.30244
11291.13117	-0.30244
11287.27359	-0.30244
11283.41602	0.84498
11279.55844	0.73127
11275.70086	0.73127
11271.84328	0.73127
11267.98570	0.01249
11264.12812	-0.86892
11260.27055	-0.02512
11256.41297	0.20729
11252.55539	0.20729
11248.69781	0.20729
11244.84023	0.20729
11240.98266	-1.64987
11237.12508	0.04961
11233.26750	0.93480
11229.40992	0.93480
11225.55234	0.93480
11221.69477	1.61906
11217.83719	1.07637
11213.97961	0.89094
11210.12203	-0.09686
11206.26445	-0.79545
11202.40687	-0.79545
11198.54930	-0.79545
11194.69172	-0.79545
11190.83414	-0.79545
11186.97656	-0.79545
11183.11898	0.49130
11179.26141	-0.15837
11175.40383	-0.16855
11171.54625	0.89719
11167.68867	1.65536
11163.83109	-0.17324
11159.97352	-0.34229
11156.11594	0.31083
11152.25836	0.11751
11148.40078	0.72459
11144.54320	0.72459
11140.68562	0.72459
11136.82805	0.72459
11132.97047	0.72459
11129.11289	1.01700
11125.25531	0.75429
11121.39773	0.75429
11117.54016	0.75429
11113.68258	0.75429
11109.82500	0.75429
11105.96742	0.75429
11102.10984	0.75429
11098.25227	0.01945
11094.39469	0.13169
11090.53711	0.13169
11086.67953	0.13169
11082.82195	0.13169
11078.96437	-0.07081
11075.10680	0.11103
11071.24922	2.09659
11067.39164	2.09659
11063.53406	2.09659
11059.67648	2.09659
11055.81891	2.09659
11051.96133	2.09659
11048.10375	2.09659
11044.24617	2.09659
11040.38859	2.09659
11036.53102	2.09659
11032.67344	2.09659
11028.81586	2.09659
11024.95828	2.09659
11021.10070	-0.28033
11017.24312	-0.28033
11013.38555	-0.28033
11009.52797	-0.28033
11005.67039	-0.28033
11001.81281	-0.28033
10997.95523	-0.28033
10994.09766	-0.28033
10990.24008	-0.28033
10986.38250	0.95804
10982.52492	0.92872
10978.66734	0.92872
10974.80977	0.92872
10970.95219	0.92872
10967.09461	0.92872
10963.23703	0.92872
10959.37945	0.92872
10955.52187	0.50234
10951.66430	0.69777
10947.80672	0.69777
10943.94914	0.69777
10940.09156	0.69777
10936.23398	0.69777
10932.37641	0.69777
10928.51883	1.08915
10924.66125	0.28584
10920.80367	0.28584
10916.94609	0.28584
10913.08852	2.21109
10909.23094	-0.24870
10905.37336	-0.24870
10901.51578	-0.24870
10897.65820	1.30326
10893.80062	1.30326
10889.94305	1.30326
10886.08547	1.49610
10882.22789	1.06424
10878.37031	0.09928
10874.51273	-0.65183
10870.65516	0.63561
10866.79758	0.63561
10862.94000	1.18350
10859.08242	1.29531
10855.22484	1.29531
10851.36727	1.29531
10847.50969	-0.50714
10843.65211	-1.11453
10839.79453	-0.76260
10835.93695	-0.76260
10832.07937	-0.76260
10828.22180	-0.76260
10824.36422	1.37903
10820.50664	0.96024
10816.64906	1.39145
10812.79148	-0.29451
10808.93391	-1.83824
10805.07633	0.13225
10801.21875	0.69875
10797.36117	0.69875
10793.50359	0.69875
10789.64602	0.69875
10785.78844	0.69875
10781.93086	0.69875
10778.07328	0.69875
10774.21570	0.69875
10770.35812	0.69875
10766.50055	0.69875
10762.64297	-0.47954
10758.78539	0.10182
10754.92781	0.07655
10751.07023	0.40326
10747.21266	0.40326
10743.35508	0.40326
10739.49750	0.40326
10735.63992	0.40326
10731.78234	0.40326
10727.92477	0.40326
10724.06719	0.40326
10720.20961	0.91671
10716.35203	1.70586
10712.49445	1.70586
10708.63687	1.70586
10704.77930	-0.10968
10700.92172	0.95155
10697.06414	0.95155
10693.20656	0.95155
10689.34898	-1.34189
10685.49141	-2.11608
10681.63383	-2.11608
10677.77625	-2.11608
10673.91867	-2.11608
10670.06109	1.82102
10666.20352	2.18636
10662.34594	7.82773
10658.48836	7.82773
10654.63078	7.82773
10650.77320	-0.21241
10646.91562	-0.21241
10643.05805	-0.21241
10639.20047	2.24864
10635.34289	0.79853
10631.48531	0.04454
10627.62773	0.30086
10623.77016	1.74556
10619.91258	4.03618
10616.05500	1.03066
10612.19742	0.23488
10608.33984	0.28188
10604.48227	0.78413
10600.62469	0.78413
10596.76711	3.33301
10592.90953	0.83511
10589.05195	0.78777
10585.19437	1.70428
10581.33680	1.70428
10577.47922	1.92667
10573.62164	1.06649
10569.76406	-0.39708
10565.90648	-0.25935
10562.04891	0.02572
10558.19133	0.12789
10554.33375	0.78880
10550.47617	0.78880
10546.61859	0.78880
10542.76102	0.78880
10538.90344	-3.14000
10535.04586	0.28533
10531.18828	0.28533
10527.33070	-0.42911
10523.47312	0.19488
10519.61555	0.19488
10515.75797	0.19488
10511.90039	0.19488
10508.04281	0.19488
10504.18523	0.19488
10500.32766	1.54711
10496.47008	1.48005
10492.61250	2.83446
10488.75492	5.59692
10484.89734	5.59692
10481.03977	5.59692
10477.18219	5.59692
10473.32461	5.59692
10469.46703	5.59692
10465.60945	5.59692
10461.75187	5.59692
10457.89430	5.59692
10454.03672	3.28440
10450.17914	3.28440
10446.32156	2.03778
10442.46398	-0.12136
10438.60641	-0.12136
10434.74883	-0.12136
10430.89125	-0.09815
10427.03367	-0.09815
10423.17609	-0.09815
10419.31852	-0.55363
10415.46094	0.11403
10411.60336	0.35145
10407.74578	0.35145
10403.88820	0.35145
10400.03062	0.35145
10396.17305	0.35145
10392.31547	0.35145
10388.45789	0.35145
10384.60031	0.35145
10380.74273	0.35145
10376.88516	0.26943
10373.02758	0.26943
10369.17000	-0.94227
10365.31242	-0.37553
10361.45484	-0.37553
10357.59727	-0.37553
10353.73969	1.29008
10349.88211	1.34617
10346.02453	1.34617
10342.16695	1.34617
10338.30937	-0.03848
10334.45180	0.17723
10330.59422	-2.97686
10326.73664	-2.97686
10322.87906	-2.97686
10319.02148	-1.46589
10315.16391	0.80569
10311.30633	0.80569
10307.44875	0.80569
10303.59117	0.80569
10299.73359	0.80569
10295.87602	0.96319
10292.01844	0.26881
10288.16086	0.14102
10284.30328	0.14102
10280.44570	-2.02435
10276.58812	-1.15510
10272.73055	-1.15510
10268.87297	-1.15510
10265.01539	-1.15510
10261.15781	-1.15510
10257.30023	-1.15510
10253.44266	0.95978
10249.58508	1.86249
10245.72750	1.86249
10241.86992	1.86249
10238.01234	1.86249
10234.15477	1.86249
10230.29719	2.56621
10226.43961	1.56426
10222.58203	0.86164
10218.72445	-0.06116
10214.86687	-0.09957
10211.00930	-0.12610
10207.15172	-1.66575
10203.29414	-1.66575
10199.43656	-1.66575
10195.57898	-1.66575
10191.72141	-1.66575
10187.86383	1.24611
10184.00625	1.24611
10180.14867	1.24611
10176.29109	1.24611
10172.43352	1.24611
10168.57594	1.08120
10164.71836	3.28480
10160.86078	2.76754
10157.00320	5.20735
10153.14562	5.20735
10149.28805	5.20735
10145.43047	5.20735
10141.57289	5.20735
10137.71531	-1.02824
10133.85773	-0.20498
10130.00016	-0.20498
10126.14258	-0.20498
10122.28500	-0.20498
10118.42742	-0.20498
10114.56984	0.94122
10110.71227	1.01306
10106.85469	0.40498
10102.99711	-0.03357
10099.13953	0.13957
10095.28195	-0.13283
10091.42437	-0.16888
10087.56680	-0.16888
10083.70922	0.61350
10079.85164	0.12132
10075.99406	-0.78812
10072.13648	-0.78812
10068.27891	3.90089
10064.42133	0.93495
10060.56375	0.29366
10056.70617	-0.13054
10052.84859	-0.13054
10048.99102	-0.13054
10045.13344	-0.13054
10041.27586	0.69315
10037.41828	0.44206
10033.56070	2.42044
10029.70312	3.58359
10025.84555	0.89935
10021.98797	0.89935
10018.13039	0.89935
10014.27281	0.69660
10010.41523	0.04433
10006.55766	0.24519
10002.70008	0.24519
9998.84250	0.24519
9994.98492	0.24519
9991.12734	-1.76379
9987.26977	-0.06178
9983.41219	0.37752
9979.55461	0.31662
9975.69703	0.31662
9971.83945	0.31662
9967.98187	0.31662
9964.12430	0.31662
9960.26672	0.31662
9956.40914	0.38847
9952.55156	-0.39061
9948.69398	-0.74805
9944.83641	-0.85886
9940.97883	-0.26000
9937.12125	-0.26000
9933.26367	-0.26000
9929.40609	-0.26000
9925.54852	-0.26000
9921.69094	-0.26000
9917.83336	-0.26000
9913.97578	-0.31824
9910.11820	-1.62648
9906.26062	-1.62648
9902.40305	-1.62648
9898.54547	-1.62648
9894.68789	2.06053
9890.83031	3.08466
9886.97273	1.32813
9883.11516	0.47355
9879.25758	0.91798
9875.40000	1.80648
9871.54242	1.80648
9867.68484	-0.94371
9863.82727	0.76438
9859.96969	0.65046
9856.11211	0.73433
9852.25453	0.73433
9848.39695	0.52979
9844.53937	2.07736
9840.68180	2.07736
9836.82422	2.07736
9832.96664	2.07736
9829.10906	2.07736
9825.25148	2.07736
9821.39391	2.07736
9817.53633	2.07736
9813.67875	4.94280
9809.82117	1.16009
9805.96359	1.16009
9802.10602	1.16009
9798.24844	1.16009
9794.39086	1.16009
9790.53328	-1.16038
9786.67570	-1.53235
9782.81812	-0.89264
9778.96055	-1.20567
9775.10297	-1.20567
9771.24539	-1.20567
9767.38781	-1.40447
9763.53023	-1.94331
9759.67266	-0.94557
9755.81508	-0.84182
9751.95750	-1.28650
9748.09992	-1.24031
9744.24234	-1.24031
9740.38477	-1.24031
9736.52719	-1.24031
9732.66961	-1.24031
9728.81203	-1.24031
9724.95445	-1.23333
9721.09687	-0.16441
9717.23930	0.25287
9713.38172	-0.67726
9709.52414	0.23022
9705.66656	-0.24793
9701.80898	-0.80804
9697.95141	-0.80804
9694.09383	-0.80804
9690.23625	-0.80804
9686.37867	0.65868
9682.52109	0.80940
9678.66352	1.72058
9674.80594	0.75583
9670.94836	0.59044
9667.09078	1.30925
9663.23320	1.30925
9659.37562	-3.76431
9655.51805	0.22903
9651.66047	0.48475
9647.80289	0.31156
9643.94531	0.08375
9640.08773	0.08375
9636.23016	0.08375
9632.37258	0.08375
9628.51500	1.58815
9624.65742	2.45254
9620.79984	2.45254
9616.94227	2.45254
9613.08469	2.45254
9609.22711	2.45254
9605.36953	0.90105
9601.51195	3.53870
9597.65437	1.61013
9593.79680	0.40404
9589.93922	-0.03670
9586.08164	1.23224
9582.22406	2.76896
9578.36648	0.47594
9574.50891	-1.53723
9570.65133	-1.53723
9566.79375	-1.53723
9562.93617	2.45137
9559.07859	2.45137
9555.22102	2.45137
9551.36344	-2.34060
9547.50586	-0.32936
9543.64828	1.56138
9539.79070	1.56846
9535.93312	1.56846
9532.07555	1.56846
9528.21797	1.56846
9524.36039	1.56846
9520.50281	1.56846
9516.64523	1.56846
9512.78766	0.03196
9508.93008	-1.24445
9505.07250	-1.24445
9501.21492	-1.24445
9497.35734	1.23087
9493.49977	0.90714
9489.64219	0.25117
9485.78461	0.90793
9481.92703	0.90793
9478.06945	0.90793
9474.21187	0.90793
9470.35430	0.90793
9466.49672	0.90793
9462.63914	1.19318
9458.78156	0.04084
9454.92398	0.04084
9451.06641	0.04084
9447.20883	0.04084
9443.35125	0.04084
9439.49367	2.51742
9435.63609	0.03152
9431.77852	-1.20633
9427.92094	-1.20633
9424.06336	-1.20633
9420.20578	2.34996
9416.34820	2.34996
9412.49062	2.34996
9408.63305	2.34996
9404.77547	0.56659
9400.91789	0.38543
9397.06031	0.19459
9393.20273	0.40743
9389.34516	0.44416
9385.48758	-0.33171
9381.63000	0.81713
9377.77242	2.33122
9373.91484	1.79099
9370.05727	1.33579
9366.19969	0.14192
9362.34211	0.00128
9358.48453	0.00128
9354.62695	0.00128
9350.76937	0.00128
9346.91180	0.85559
9343.05422	1.14684
9339.19664	1.14684
9335.33906	1.14684
9331.48148	1.14684
9327.62391	1.14684
9323.76633	1.14684
9319.90875	1.14684
9316.05117	1.14684
9312.19359	0.54762
9308.33602	0.91746
9304.47844	1.21839
9300.62086	1.21839
9296.76328	0.55906
9292.90570	0.60679
9289.04812	0.06790
9285.19055	-0.14151
9281.33297	0.42049
9277.47539	0.44706
9273.61781	0.28206
9269.76023	0.45934
9265.90266	0.45934
9262.04508	0.45934
9258.18750	0.45934
9254.32992	0.45934
9250.47234	0.45934
9246.61477	0.45934
9242.75719	0.45934
9238.89961	0.45934
9235.04203	0.45934
9231.18445	0.45934
9227.32687	0.45934
9223.46930	0.45934
9219.61172	0.45934
9215.75414	0.45934
9211.89656	0.45934
9208.03898	-1.01741
9204.18141	-0.21490
9200.32383	-0.73481
9196.46625	3.15641
9192.60867	0.62228
9188.75109	0.62228
9184.89352	0.62228
9181.03594	0.36378
9177.17836	0.22430
9173.32078	0.17251
9169.46320	-0.99302
9165.60562	-0.47081
9161.74805	-0.47081
9157.89047	-0.47081
9154.03289	-0.47081
9150.17531	-1.66647
9146.31773	-1.56354
9142.46016	-1.43626
9138.60258	-0.86310
9134.74500	-0.40488
9130.88742	-0.37630
9127.02984	-0.50167
9123.17227	0.11161
9119.31469	0.11161
9115.45711	1.36008
9111.59953	0.90659
9107.74195	0.49921
9103.88437	0.26293
9100.02680	-0.00250
9096.16922	-0.73908
9092.31164	-1.04289
9088.45406	-0.54198
9084.59648	-0.54198
9080.73891	-0.54198
9076.88133	0.94444
9073.02375	-0.01233
9069.16617	0.07436
9065.30859	1.38381
9061.45102	1.38381
9057.59344	2.45752
9053.73586	0.93936
9049.87828	1.30762
9046.02070	0.60236
9042.16312	-0.55661
9038.30555	-1.48108
9034.44797	0.33164
9030.59039	-0.10830
9026.73281	0.14040
9022.87523	3.89054
9019.01766	3.89054
9015.16008	3.89054
9011.30250	3.89054
9007.44492	3.89054
9003.58734	1.67353
8999.72977	1.63653
8995.87219	0.77531
8992.01461	0.38219
8988.15703	0.38219
8984.29945	0.38219
8980.44187	0.38219
8976.58430	0.51554
8972.72672	1.66094
8968.86914	0.47652
8965.01156	0.47652
8961.15398	-4.71310
8957.29641	-2.25827
8953.43883	-2.25827
8949.58125	0.56225
8945.72367	0.56225
8941.86609	0.56225
8938.00852	0.56225
8934.15094	0.56225
8930.29336	0.56225
8926.43578	0.56225
8922.57820	0.56225
8918.72062	0.56225
8914.86305	0.13423
8911.00547	0.22881
8907.14789	0.97869
8903.29031	1.04545
8899.43273	0.94453
8895.57516	0.82909
8891.71758	0.51399
8887.86000	0.37968
8884.00242	0.09693
8880.14484	0.12248
8876.28727	0.62744
8872.42969	0.55126
8868.57211	1.05305
8864.71453	5.08156
8860.85695	6.62103
8856.99937	2.06151
8853.14180	0.73619
8849.28422	0.08939
8845.42664	0.85400
8841.56906	0.18610
8837.71148	0.02497
8833.85391	0.01787
8829.99633	0.22381
8826.13875	0.99052
8822.28117	0.11538
8818.42359	-0.18165
8814.56602	-0.21331
8810.70844	-0.08140
8806.85086	0.40694
8802.99328	1.00102
8799.13570	1.32035
8795.27812	1.00596
8791.42055	1.16583
8787.56297	1.22112
8783.70539	0.95509
8779.84781	0.22867
8775.99023	0.00977
8772.13266	-0.38641
8768.27508	-0.38695
8764.41750	0.21626
8760.55992	0.23593
8756.70234	-1.86830
8752.84477	-0.19749
8748.98719	-0.23925
8745.12961	-0.36404
8741.27203	-0.14224
8737.41445	0.67696
8733.55687	0.36444
8729.69930	-0.33988
8725.84172	-0.16858
8721.98414	0.27478
8718.12656	0.02050
8714.26898	0.21837
8710.41141	0.68394
8706.55383	0.44001
8702.69625	1.02879
8698.83867	1.18184
8694.98109	1.01962
8691.12352	1.15299
8687.26594	1.85961
8683.40836	2.14113
8679.55078	0.85979
8675.69320	0.49527
8671.83562	-0.74009
8667.97805	-0.49786
8664.12047	0.27306
8660.26289	1.40531
8656.40531	4.08974
8652.54773	1.69588
8648.69016	1.29004
8644.83258	2.80243
8640.97500	0.89693
8637.11742	0.24681
8633.25984	0.26168
8629.40227	1.74721
8625.54469	1.20952
8621.68711	0.48470
8617.82953	0.52322
8613.97195	0.29995
8610.11437	0.00065
8606.25680	0.10307
8602.39922	0.12379
8598.54164	1.15405
8594.68406	2.07430
8590.82648	0.54793
8586.96891	0.06683
8583.11133	0.35884
8579.25375	0.68600
8575.39617	0.89379
8571.53859	0.75987
8567.68102	0.62886
8563.82344	0.66788
8559.96586	0.70673
8556.10828	0.54316
8552.25070	0.56975
8548.39312	0.58865
8544.53555	0.04059
8540.67797	1.20620
8536.82039	1.27957
8532.96281	0.69202
8529.10523	0.19570
8525.24766	0.40384
8521.39008	0.41603
8517.53250	-0.03644
8513.67492	-0.31320
8509.81734	-0.34423
8505.95977	0.46669
8502.10219	0.31424
8498.24461	0.56239
8494.38703	0.84279
8490.52945	1.01484
8486.67187	1.24053
8482.81430	1.18467
8478.95672	1.59141
8475.09914	0.48372
8471.24156	0.12321
8467.38398	-0.35521
8463.52641	-0.35521
8459.66883	-0.35521
8455.81125	-0.35521
8451.95367	-0.35521
8448.09609	-0.35521
8444.23852	-0.35521
8440.38094	-0.35521
8436.52336	1.84632
8432.66578	1.84632
8428.80820	1.84632
8424.95062	1.84632
8421.09305	1.84632
8417.23547	1.84632
8413.37789	1.84632
8409.52031	1.84632
8405.66273	1.84632
8401.80516	1.84632
8397.94758	1.84632
8394.09000	1.84632
8390.23242	1.84632
8386.37484	1.84632
8382.51727	1.84632
8378.65969	1.84632
8374.80211	1.84632
8370.94453	1.84632
8367.08695	1.84632
8363.22937	1.84632
8359.37180	1.84632
8355.51422	1.84632
8351.65664	1.84632
8347.79906	1.84632
8343.94148	1.84632
8340.08391	1.84632
8336.22633	1.84632
8332.36875	1.84632
8328.51117	1.84632
8324.65359	1.84632
8320.79602	1.84632
8316.93844	1.84632
8313.08086	1.84632
8309.22328	1.84632
8305.36570	1.84632
8301.50812	1.84632
8297.65055	1.84632
8293.79297	1.84632
8289.93539	1.29521
8286.07781	0.65140
8282.22023	-0.56686
8278.36266	-0.94862
8274.50508	0.92799
8270.64750	0.92799
8266.78992	0.45714
8262.93234	-0.35828
8259.07477	-0.27460
8255.21719	0.65817
8251.35961	2.08051
8247.50203	0.95333
8243.64445	0.29569
8239.78687	0.11530
8235.92930	0.54268
8232.07172	1.79842
8228.21414	1.45634
8224.35656	0.87122
8220.49898	-0.21984
8216.64141	-0.21984
8212.78383	0.16672
8208.92625	-0.03119
8205.06867	-2.28809
8201.21109	-2.28809
8197.35352	-0.27697
8193.49594	0.41607
8189.63836	0.51438
8185.78078	-0.27866
8181.92320	-0.47318
8178.06562	-0.47318
8174.20805	-0.47318
8170.35047	1.35207
8166.49289	0.75132
8162.63531	0.62370
8158.77773	0.25525
8154.92016	-0.10029
8151.06258	-0.45464
8147.20500	0.48667
8143.34742	1.11248
8139.48984	-0.08501
8135.63227	-0.67534
8131.77469	0.07084
8127.91711	1.18365
8124.05953	3.89775
8120.20195	3.89775
8116.34437	3.89775
8112.48680	3.89775
8108.62922	-0.94071
8104.77164	0.66525
8100.91406	0.35402
8097.05648	0.24664
8093.19891	-0.77599
8089.34133	-0.77599
8085.48375	0.69909
8081.62617	-0.04604
8077.76859	-1.08356
8073.91102	-0.25017
8070.05344	0.81374
8066.19586	0.71572
8062.33828	2.01228
8058.48070	2.01228
8054.62312	2.01228
8050.76555	2.01228
8046.90797	1.20465
8043.05039	1.78756
8039.19281	3.70712
8035.33523	3.70712
8031.47766	-0.17573
8027.62008	-0.01515
8023.76250	-0.01515
8019.90492	-0.01515
8016.04734	-0.01515
8012.18977	-0.01515
8008.33219	-0.10540
8004.47461	0.19855
8000.61703	0.74101
7996.75945	0.74101
7992.90187	0.74101
7989.04430	0.87485
7985.18672	0.47083
7981.32914	0.82203
7977.47156	1.85378
7973.61398	0.95240
7969.75641	0.55584
7965.89883	0.51434
7962.04125	0.79019
7958.18367	0.67575
7954.32609	0.42671
7950.46852	0.42414
7946.61094	0.18762
7942.75336	-0.12187
7938.89578	0.71541
7935.03820	-0.07575
7931.18062	-0.14710
7927.32305	-0.56972
7923.46547	-0.56972
7919.60789	-0.56972
7915.75031	-0.56972
7911.89273	-0.56972
7908.03516	0.63810
7904.17758	1.17605
7900.32000	2.31875
7896.46242	2.31875
7892.60484	2.31875
7888.74727	1.51680
7884.88969	1.51680
7881.03211	1.51680
7877.17453	0.94918
7873.31695	-0.16442
7869.45937	-0.17752
7865.60180	-0.53770
7861.74422	-0.53770
7857.88664	-0.53770
7854.02906	1.00600
7850.17148	1.00600
7846.31391	3.53325
7842.45633	0.58276
7838.59875	0.20358
7834.74117	0.04569
7830.88359	0.08520
7827.02602	0.30933
7823.16844	0.24702
7819.31086	0.08216
7815.45328	0.41151
7811.59570	0.94911
7807.73812	0.79343
7803.88055	0.50962
7800.02297	0.41777
7796.16539	0.62647
7792.30781	0.78488
7788.45023	0.58366
7784.59266	0.72950
7780.73508	0.85780
7776.87750	0.61973
7773.01992	0.68885
7769.16234	0.81361
7765.30477	1.05268
7761.44719	1.26454
7757.58961	1.24862
7753.73203	1.07355
7749.87445	0.72782
7746.01687	0.32261
7742.15930	0.29762
7738.30172	0.34370
7734.44414	0.40367
7730.58656	0.46339
7726.72898	0.74032
7722.87141	1.40838
7719.01383	1.67537
7715.15625	2.05665
7711.29867	1.44644
7707.44109	0.54229
7703.58352	0.37748
7699.72594	0.54902
7695.86836	0.86891
7692.01078	0.74824
7688.15320	0.40408
7684.29562	0.27928
7680.43805	0.35345
7676.58047	0.54845
7672.72289	0.60805
7668.86531	0.45076
7665.00773	0.30848
7661.15016	0.11599
7657.29258	0.17758
7653.43500	0.29146
7649.57742	0.22055
7645.71984	0.39805
7641.86227	0.62761
7638.00469	0.60861
7634.14711	0.53775
7630.28953	0.49378
7626.43195	0.35147
7622.57437	0.23438
7618.71680	0.35860
7614.85922	0.56698
7611.00164	0.49367
7607.14406	0.30370
7603.28648	0.29596
7599.42891	0.41796
7595.57133	0.36730
7591.71375	0.31109
7587.85617	0.41904
7583.99859	0.34039
7580.14102	0.31158
7576.28344	0.45550
7572.42586	0.29818
7568.56828	0.19408
7564.71070	0.27291
7560.85312	0.11854
7556.99555	0.02297
7553.13797	0.37253
7549.28039	0.68543
7545.42281	0.61544
7541.56523	0.43925
7537.70766	0.38653
7533.85008	0.35022
7529.99250	0.31758
7526.13492	0.23344
7522.27734	0.24326
7518.41977	0.54703
7514.56219	0.57760
7510.70461	0.39721
7506.84703	0.54225
7502.98945	0.66969
7499.13187	0.49511
7495.27430	0.30260
7491.41672	0.24975
7487.55914	0.38050
7483.70156	0.56465
7479.84398	0.54937
7475.98641	0.50316
7472.12883	0.51727
7468.27125	0.48217
7464.41367	0.35777
7460.55609	0.22541
7456.69852	0.28093
7452.84094	0.48340
7448.98336	0.49159
7445.12578	0.53847
7441.26820	0.51928
7437.41062	0.37955
7433.55305	0.37671
7429.69547	0.42561
7425.83789	0.36951
7421.98031	0.35544
7418.12273	0.38904
7414.26516	0.40398
7410.40758	0.42574
7406.55000	0.44462
7402.69242	0.41307
7398.83484	0.34990
7394.97727	0.33277
7391.11969	0.39548
7387.26211	0.38231
7383.40453	0.23458
7379.54695	0.22603
7375.68937	0.37493
7371.83180	0.42075
7367.97422	0.34972
7364.11664	0.37647
7360.25906	0.38644
7356.40148	0.26091
7352.54391	0.18376
7348.68633	0.29826
7344.82875	0.40517
7340.97117	0.34042
7337.11359	0.31332
7333.25602	0.39047
7329.39844	0.40116
7325.54086	0.45563
7321.68328	0.46984
7317.82570	0.38440
7313.96812	0.33571
7310.11055	0.31227
7306.25297	0.37964
7302.39539	0.45005
7298.53781	0.41735
7294.68023	0.43311
7290.82266	0.42414
7286.96508	0.33372
7283.10750	0.44125
7279.24992	0.47598
7275.39234	0.30802
7271.53477	0.29101
7267.67719	0.39610
7263.81961	0.46372
7259.96203	0.49351
7256.10445	0.51859
7252.24687	0.49718
7248.38930	0.43724
7244.53172	0.43682
7240.67414	0.37563
7236.81656	0.30243
7232.95898	0.41589
7229.10141	0.50468
7225.24383	0.52122
7221.38625	0.51565
7217.52867	0.45468
7213.67109	0.45722
7209.81352	0.45392
7205.95594	0.35372
7202.09836	0.35597
7198.24078	0.38286
7194.38320	0.40081
7190.52562	0.48197
7186.66805	0.44056
7182.81047	0.33905
7178.95289	0.38091
7175.09531	0.41090
7171.23773	0.38021
7167.38016	0.34113
7163.52258	0.30802
7159.66500	0.31351
7155.80742	0.38665
7151.94984	0.47510
7148.09227	0.48904
7144.23469	0.41531
7140.37711	0.34710
7136.51953	0.37293
7132.66195	0.45371
7128.80437	0.49475
7124.94680	0.51714
7121.08922	0.51137
7117.23164	0.40942
7113.37406	0.35431
7109.51648	0.42585
7105.65891	0.52546
7101.80133	0.55107
7097.94375	0.51363
7094.08617	0.43277
7090.22859	0.36531
7086.37102	0.38862
7082.51344	0.47964
7078.65586	0.46916
7074.79828	0.42591
7070.94070	0.45519
7067.08312	0.44838
7063.22555	0.42473
7059.36797	0.44877
7055.51039	0.49456
7051.65281	0.50934
7047.79523	0.49839
7043.93766	0.46557
7040.08008	0.40024
7036.22250	0.39424
7032.36492	0.44611
7028.50734	0.47034
7024.64977	0.49459
7020.79219	0.49599
7016.93461	0.44278
7013.07703	0.38518
7009.21945	0.39391
7005.36187	0.45057
7001.50430	0.46192
6997.64672	0.47483
6993.78914	0.46527
6989.93156	0.39946
6986.07398	0.38849
6982.21641	0.40917
6978.35883	0.44553
6974.50125	0.47348
6970.64367	0.40917
6966.78609	0.38186
6962.92852	0.42895
6959.07094	0.44824
6955.21336	0.44641
6951.35578	0.43736
6947.49820	0.42925
6943.64062	0.44433
6939.78305	0.41913
6935.92547	0.34274
6932.06789	0.32430
6928.21031	0.38653
6924.35273	0.45755
6920.49516	0.43375
6916.63758	0.37037
6912.78000	0.40679
6908.92242	0.43615
6905.06484	0.44026
6901.20727	0.47124
6897.34969	0.42767
6893.49211	0.37472
6889.63453	0.40245
6885.77695	0.42059
6881.91937	0.38832
6878.06180	0.37596
6874.20422	0.41536
6870.34664	0.44878
6866.48906	0.46468
6862.63148	0.45475
6858.77391	0.42849
6854.91633	0.42657
6851.05875	0.41851
6847.20117	0.38850
6843.34359	0.34651
6839.48602	0.35703
6835.62844	0.41133
6831.77086	0.40639
6827.91328	0.40664
6824.05570	0.42718
6820.19812	0.40946
6816.34055	0.40331
6812.48297	0.40346
6808.62539	0.41824
6804.76781	0.41366
6800.91023	0.37269
6797.05266	0.38547
6793.19508	0.41848
6789.33750	0.40311
6785.47992	0.38690
6781.62234	0.39446
6777.76477	0.37641
6773.90719	0.36682
6770.04961	0.40857
6766.19203	0.43422
6762.33445	0.41351
6758.47687	0.40224
6754.61930	0.41782
6750.76172	0.43512
6746.90414	0.39892
6743.04656	0.36308
6739.18898	0.37845
6735.33141	0.39726
6731.47383	0.42694
6727.61625	0.44824
6723.75867	0.41826
6719.90109	0.39204
6716.04352	0.38273
6712.18594	0.39116
6708.32836	0.42684
6704.47078	0.45513
6700.61320	0.46260
6696.75562	0.43552
6692.89805	0.38131
6689.04047	0.36626
6685.18289	0.40275
6681.32531	0.43362
6677.46773	0.44052
6673.61016	0.45623
6669.75258	0.45757
6665.89500	0.39902
6662.03742	0.36219
6658.17984	0.39377
6654.32227	0.41497
6650.46469	0.41432
6646.60711	0.40517
6642.74953	0.38554
6638.89195	0.39117
6635.03437	0.40576
6631.17680	0.41299
6627.31922	0.42741
6623.46164	0.42847
6619.60406	0.42429
6615.74648	0.41785
6611.88891	0.39361
6608.03133	0.38291
6604.17375	0.40138
6600.31617	0.43945
6596.45859	0.45773
6592.60102	0.41596
6588.74344	0.37641
6584.88586	0.39642
6581.02828	0.41082
6577.17070	0.39125
6573.31312	0.41705
6569.45555	0.45864
6565.59797	0.40993
6561.74039	0.35806
6557.88281	0.38333
6554.02523	0.39780
6550.16766	0.40518
6546.31008	0.44817
6542.45250	0.44105
6538.59492	0.39014
6534.73734	0.37581
6530.87977	0.39218
6527.02219	0.41254
6523.16461	0.42433
6519.30703	0.42471
6515.44945	0.42153
6511.59187	0.40730
6507.73430	0.40701
6503.87672	0.41846
6500.01914	0.41096
6496.16156	0.41204
6492.30398	0.40759
6488.44641	0.38521
6484.58883	0.38389
6480.73125	0.39434
6476.87367	0.40518
6473.01609	0.42534
6469.15852	0.45185
6465.30094	0.45307
6461.44336	0.41614
6457.58578	0.39501
6453.72820	0.40315
6449.87062	0.40351
6446.01305	0.39241
6442.15547	0.39540
6438.29789	0.41811
6434.44031	0.42184
6430.58273	0.41274
6426.72516	0.42330
6422.86758	0.43537
6419.01000	0.43589
6415.15242	0.42575
6411.29484	0.40737
6407.43727	0.39524
6403.57969	0.40343
6399.72211	0.42538
6395.86453	0.41884
6392.00695	0.39240
6388.14937	0.40432
6384.29180	0.42275
6380.43422	0.39946
6376.57664	0.37677
6372.71906	0.38212
6368.86148	0.39980
6365.00391	0.42150
6361.14633	0.43851
6357.28875	0.43638
6353.43117	0.42044
6349.57359	0.41118
6345.71602	0.40541
6341.85844	0.40426
6338.00086	0.41925
6334.14328	0.42149
6330.28570	0.40285
6326.42812	0.39055
6322.57055	0.37784
6318.71297	0.37595
6314.85539	0.40137
6310.99781	0.41451
6307.14023	0.40476
6303.28266	0.39406
6299.42508	0.38757
6295.56750	0.41053
6291.70992	0.44669
6287.85234	0.45069
6283.99477	0.43851
6280.13719	0.42922
6276.27961	0.42177
6272.42203	0.41836
6268.56445	0.40948
6264.70687	0.40232
6260.84930	0.41318
6256.99172	0.42707
6253.13414	0.42636
6249.27656	0.42044
6245.41898	0.41957
6241.56141	0.42643
6237.70383	0.43957
6233.84625	0.43655
6229.98867	0.41642
6226.13109	0.40053
6222.27352	0.39835
6218.41594	0.41231
6214.55836	0.40778
6210.70078	0.38934
6206.84320	0.40524
6202.98562	0.41477
6199.12805	0.39739
6195.27047	0.38712
6191.41289	0.38716
6187.55531	0.39712
6183.69773	0.39196
6179.84016	0.37301
6175.98258	0.38460
6172.12500	0.42110
6168.26742	0.43885
6164.40984	0.43776
6160.55227	0.44901
6156.69469	0.44136
6152.83711	0.39667
6148.97953	0.38186
6145.12195	0.40081
6141.26437	0.40147
6137.40680	0.39958
6133.54922	0.41111
6129.69164	0.40349
6125.83406	0.39611
6121.97648	0.41968
6118.11891	0.43257
6114.26133	0.41846
6110.40375	0.40088
6106.54617	0.39621
6102.68859	0.40798
6098.83102	0.41908
6094.97344	0.41920
6091.11586	0.41077
6087.25828	0.40414
6083.40070	0.40318
6079.54312	0.40196
6075.68555	0.40144
6071.82797	0.39413
6067.97039	0.38635
6064.11281	0.38693
6060.25523	0.39322
6056.39766	0.41966
6052.54008	0.43498
6048.68250	0.40575
6044.82492	0.39139
6040.96734	0.40937
6037.10977	0.41318
6033.25219	0.40332
6029.39461	0.39235
6025.53703	0.39070
6021.67945	0.40129
6017.82187	0.40149
6013.96430	0.39487
6010.10672	0.39710
6006.24914	0.40315
6002.39156	0.41387
5998.53398	0.42123
5994.67641	0.41768
5990.81883	0.41460
5986.96125	0.41123
5983.10367	0.40485
5979.24609	0.39591
5975.38852	0.38977
5971.53094	0.39585
5967.67336	0.40068
5963.81578	0.41092
5959.95820	0.42614
5956.10062	0.41570
5952.24305	0.40350
5948.38547	0.40791
5944.52789	0.41077
5940.67031	0.40562
5936.81273	0.38592
5932.95516	0.38538
5929.09758	0.41970
5925.24000	0.42876
5921.38242	0.40336
5917.52484	0.39670
5913.66727	0.41394
5909.80969	0.41593
5905.95211	0.40594
5902.09453	0.40920
5898.23695	0.41362
5894.37937	0.41212
5890.52180	0.40939
5886.66422	0.41221
5882.80664	0.41717
5878.94906	0.40919
5875.09148	0.40939
5871.23391	0.42157
5867.37633	0.42734
5863.51875	0.42441
5859.66117	0.41122
5855.80359	0.39833
5851.94602	0.39073
5848.08844	0.40432
5844.23086	0.42321
5840.37328	0.40487
5836.51570	0.39093
5832.65812	0.40268
5828.80055	0.40929
5824.94297	0.41789
5821.08539	0.41800
5817.22781	0.40177
5813.37023	0.40160
5809.51266	0.41379
5805.65508	0.41349
5801.79750	0.41501
5797.93992	0.42544
5794.08234	0.41888
5790.22477	0.40038
5786.36719	0.40282
5782.50961	0.41437
5778.65203	0.41169
5774.79445	0.41754
5770.93687	0.42835
5767.07930	0.42728
5763.22172	0.42354
5759.36414	0.41147
5755.50656	0.40465
5751.64898	0.41177
5747.79141	0.41795
5743.93383	0.42034
5740.07625	0.41121
5736.21867	0.39878
5732.36109	0.39769
5728.50352	0.40564
5724.64594	0.41218
5720.78836	0.40842
5716.93078	0.40819
5713.07320	0.41735
5709.21562	0.42609
5705.35805	0.42530
5701.50047	0.41388
5697.64289	0.40947
5693.78531	0.40619
5689.92773	0.40461
5686.07016	0.42278
5682.21258	0.43306
5678.35500	0.42499
5674.49742	0.41824
5670.63984	0.41319
5666.78227	0.41268
5662.92469	0.41159
5659.06711	0.40755
5655.20953	0.40682
5651.35195	0.41105
5647.49437	0.41661
5643.63680	0.40545
5639.77922	0.39359
5635.92164	0.40400
5632.06406	0.41427
5628.20648	0.41256
5624.34891	0.40783
5620.49133	0.40420
5616.63375	0.40439
5612.77617	0.41149
5608.91859	0.41608
5605.06102	0.40761
5601.20344	0.40862
5597.34586	0.41843
5593.48828	0.40654
5589.63070	0.39313
5585.77312	0.40053
5581.91555	0.40607
5578.05797	0.40062
5574.20039	0.39992
5570.34281	0.40511
5566.48523	0.40723
5562.62766	0.40822
5558.77008	0.40668
5554.91250	0.39598
5551.05492	0.38876
5547.19734	0.39174
5543.33977	0.39225
5539.48219	0.39535
5535.62461	0.40501
5531.76703	0.40987
5527.90945	0.41367
5524.05187	0.41824
5520.19430	0.41358
5516.33672	0.40283
5512.47914	0.40311
5508.62156	0.41153
5504.76398	0.40679
5500.90641	0.40231
5497.04883	0.40846
5493.19125	0.40835
5489.33367	0.40587
5485.47609	0.40615
5481.61852	0.40736
5477.76094	0.40887
5473.90336	0.40195
5470.04578	0.40486
5466.18820	0.42139
5462.33062	0.42042
5458.47305	0.40703
5454.61547	0.39751
5450.75789	0.38782
5446.90031	0.39110
5443.04273	0.40257
5439.18516	0.40138
5435.32758	0.40227
5431.47000	0.40577
5427.61242	0.40536
5423.75484	0.41534
5419.89727	0.42041
5416.03969	0.41102
5412.18211	0.40433
5408.32453	0.39685
5404.46695	0.39172
5400.60937	0.39538
5396.75180	0.40469
5392.89422	0.41857
5389.03664	0.41423
5385.17906	0.40293
5381.32148	0.40943
5377.46391	0.41399
5373.60633	0.41575
5369.74875	0.41631
5365.89117	0.40616
5362.03359	0.39955
5358.17602	0.39988
5354.31844	0.40028
5350.46086	0.40350
5346.60328	0.40385
5342.74570	0.39927
5338.88812	0.39863
5335.03055	0.40275
5331.17297	0.40598
5327.31539	0.40570
5323.45781	0.40414
5319.60023	0.40616
5315.74266	0.40765
5311.88508	0.40650
5308.02750	0.40775
5304.16992	0.41138
5300.31234	0.40927
5296.45477	0.40112
5292.59719	0.39916
5288.73961	0.39931
5284.88203	0.40266
5281.02445	0.41854
5277.16687	0.42436
5273.30930	0.41531
5269.45172	0.40796
5265.59414	0.40301
5261.73656	0.40429
5257.87898	0.40996
5254.02141	0.41378
5250.16383	0.41704
5246.30625	0.41386
5242.44867	0.40520
5238.59109	0.40761
5234.73352	0.41301
5230.87594	0.40834
5227.01836	0.40750
5223.16078	0.41265
5219.30320	0.41356
5215.44562	0.40871
5211.58805	0.40237
5207.73047	0.40570
5203.87289	0.40952
5200.01531	0.40719
5196.15773	0.41272
5192.30016	0.41666
5188.44258	0.40760
5184.58500	0.40161
5180.72742	0.40601
5176.86984	0.40852
5173.01227	0.40963
5169.15469	0.41416
5165.29711	0.41524
5161.43953	0.41205
5157.58195	0.41263
5153.72437	0.41494
5149.86680	0.41143
5146.00922	0.40631
5142.15164	0.40628
5138.29406	0.41177
5134.43648	0.41546
5130.57891	0.40943
5126.72133	0.40346
5122.86375	0.40466
5119.00617	0.40910
5115.14859	0.41499
5111.29102	0.41315
5107.43344	0.40740
5103.57586	0.40832
5099.71828	0.40950
5095.86070	0.41231
5092.00312	0.41531
5088.14555	0.41184
5084.28797	0.41308
5080.43039	0.41924
5076.57281	0.41689
5072.71523	0.40880
5068.85766	0.40523
5065.00008	0.40731
5061.14250	0.41047
5057.28492	0.41323
5053.42734	0.41762
5049.56977	0.42086
5045.71219	0.41745
5041.85461	0.40866
5037.99703	0.40443
5034.13945	0.41175
5030.28187	0.41803
5026.42430	0.41332
5022.56672	0.41054
5018.70914	0.41353
5014.85156	0.41348
5010.99398	0.41023
5007.13641	0.40889
5003.27883	0.41365
4999.42125	0.41917
4995.56367	0.41808
4991.70609	0.41089
4987.84852	0.40603
4983.99094	0.41085
4980.13336	0.41321
4976.27578	0.40949
4972.41820	0.41111
4968.56062	0.41075
4964.70305	0.40545
4960.84547	0.40701
4956.98789	0.41282
4953.13031	0.41362
4949.27273	0.41234
4945.41516	0.41455
4941.55758	0.41518
4937.70000	0.40958
4933.84242	0.40582
4929.98484	0.40681
4926.12727	0.40561
4922.26969	0.40649
4918.41211	0.41154
4914.55453	0.41254
4910.69695	0.41328
4906.83937	0.41620
4902.98180	0.41365
4899.12422	0.40872
4895.26664	0.40904
4891.40906	0.41096
4887.55148	0.41116
4883.69391	0.41519
4879.83633	0.41854
4875.97875	0.41422
4872.12117	0.41241
4868.26359	0.41526
4864.40602	0.41263
4860.54844	0.40932
4856.69086	0.41093
4852.83328	0.41254
4848.97570	0.41432
4845.11812	0.41479
4841.26055	0.41302
4837.40297	0.41274
4833.54539	0.41038
4829.68781	0.40822
4825.83023	0.41296
4821.97266	0.41675
4818.11508	0.41434
4814.25750	0.41521
4810.39992	0.41664
4806.54234	0.40981
4802.68477	0.40899
4798.82719	0.41773
4794.96961	0.41831
4791.11203	0.41350
4787.25445	0.41222
4783.39687	0.41295
4779.53930	0.41609
4775.68172	0.41846
4771.82414	0.41586
4767.96656	0.41346
4764.10898	0.41466
4760.25141	0.41386
4756.39383	0.41239
4752.53625	0.41368
4748.67867	0.41210
4744.82109	0.40923
4740.96352	0.40970
4737.10594	0.41182
4733.24836	0.41483
4729.39078	0.41596
4725.53320	0.41351
4721.67562	0.41099
4717.81805	0.41035
4713.96047	0.41060
4710.10289	0.41195
4706.24531	0.41623
4702.38773	0.41917
4698.53016	0.41463
4694.67258	0.40861
4690.81500	0.40757
4686.95742	0.40811
4683.09984	0.41002
4679.24227	0.41298
4675.38469	0.41349
4671.52711	0.41471
4667.66953	0.41681
4663.81195	0.41485
4659.95437	0.41222
4656.09680	0.41430
4652.23922	0.41605
4648.38164	0.41260
4644.52406	0.41153
4640.66648	0.41487
4636.80891	0.41506
4632.95133	0.41343
4629.09375	0.41378
4625.23617	0.41490
4621.37859	0.41585
4617.52102	0.41784
4613.66344	0.41962
4609.80586	0.41610
4605.94828	0.41170
4602.09070	0.41464
4598.23312	0.42057
4594.37555	0.42281
4590.51797	0.42054
4586.66039	0.41600
4582.80281	0.41384
4578.94523	0.41506
4575.08766	0.41598
4571.23008	0.41514
4567.37250	0.41563
4563.51492	0.41801
4559.65734	0.41804
4555.79977	0.41647
4551.94219	0.41507
4548.08461	0.41408
4544.22703	0.41653
4540.36945	0.41889
4536.51187	0.41835
4532.65430	0.41685
4528.79672	0.41393
4524.93914	0.41302
4521.08156	0.41512
4517.22398	0.41653
4513.36641	0.41625
4509.50883	0.41615
4505.65125	0.41867
4501.79367	0.41936
4497.93609	0.41648
4494.07852	0.41588
4490.22094	0.41546
4486.36336	0.41389
4482.50578	0.41574
4478.64820	0.41744
4474.79062	0.41879
4470.93305	0.42244
4467.07547	0.42115
4463.21789	0.41687
4459.36031	0.41745
4455.50273	0.41924
4451.64516	0.41868
4447.78758	0.41844
4443.93000	0.41945
4440.07242	0.41722
4436.21484	0.41406
4432.35727	0.41650
4428.49969	0.41895
4424.64211	0.41809
4420.78453	0.41822
4416.92695	0.41903
4413.06937	0.42020
4409.21180	0.42208
4405.35422	0.42170
4401.49664	0.41871
4397.63906	0.41697
4393.78148	0.41688
4389.92391	0.41741
4386.06633	0.41824
4382.20875	0.41834
4378.35117	0.41989
4374.49359	0.42132
4370.63602	0.41915
4366.77844	0.41685
4362.92086	0.41601
4359.06328	0.41541
4355.20570	0.41771
4351.34812	0.42115
4347.49055	0.42040
4343.63297	0.41881
4339.77539	0.41928
4335.91781	0.41870
4332.06023	0.41784
4328.20266	0.41823
4324.34508	0.41805
4320.48750	0.41662
4316.62992	0.41708
4312.77234	0.41844
4308.91477	0.41700
4305.05719	0.41672
4301.19961	0.41839
4297.34203	0.41775
4293.48445	0.41599
4289.62687	0.41627
4285.76930	0.41815
4281.91172	0.41891
4278.05414	0.41809
4274.19656	0.41650
4270.33898	0.41720
4266.48141	0.41960
4262.62383	0.41826
4258.76625	0.41665
4254.90867	0.41767
4251.05109	0.41774
4247.19352	0.41773
4243.33594	0.41747
4239.47836	0.41618
4235.62078	0.41679
4231.76320	0.41800
4227.90562	0.41693
4224.04805	0.41669
4220.19047	0.41836
4216.33289	0.41895
4212.47531	0.41882
4208.61773	0.41851
4204.76016	0.41810
4200.90258	0.41894
4197.04500	0.41970
4193.18742	0.41928
4189.32984	0.41840
4185.47227	0.41740
4181.61469	0.41825
4177.75711	0.42022
4173.89953	0.41993
4170.04195	0.41975
4166.18437	0.42067
4162.32680	0.41946
4158.46922	0.41809
4154.61164	0.41835
4150.75406	0.41805
4146.89648	0.41842
4143.03891	0.41938
4139.18133	0.41795
4135.32375	0.41719
4131.46617	0.41855
4127.60859	0.41912
4123.75102	0.42029
4119.89344	0.42075
4116.03586	0.41902
4112.17828	0.41842
4108.32070	0.41880
4104.46312	0.41930
4100.60555	0.42025
4096.74797	0.41980
4092.89039	0.41840
4089.03281	0.41883
4085.17523	0.41988
4081.31766	0.41923
4077.46008	0.41835
4073.60250	0.41832
4069.74492	0.41798
4065.88734	0.41802
4062.02977	0.41964
4058.17219	0.41975
4054.31461	0.41826
4050.45703	0.41906
4046.59945	0.42017
4042.74187	0.41955
4038.88430	0.41885
4035.02672	0.41942
4031.16914	0.42136
4027.31156	0.42144
4023.45398	0.41952
4019.59641	0.41889
4015.73883	0.42029
4011.88125	0.42119
4008.02367	0.41977
4004.16609	0.41909
4000.30852	0.41964
3996.45094	0.42025
3992.59336	0.42086
3988.73578	0.42012
3984.87820	0.42050
3981.02062	0.42079
3977.16305	0.41856
3973.30547	0.41817
3969.44789	0.41966
3965.59031	0.42002
3961.73273	0.41925
3957.87516	0.41846
3954.01758	0.41908
3950.16000	0.42056
3946.30242	0.42184
3942.44484	0.42199
3938.58727	0.42092
3934.72969	0.42038
3930.87211	0.42131
3927.01453	0.42068
3923.15695	0.41861
3919.29937	0.41980
3915.44180	0.42093
3911.58422	0.41924
3907.72664	0.41853
3903.86906	0.41939
3900.01148	0.42156
3896.15391	0.42256
3892.29633	0.42215
3888.43875	0.42205
3884.58117	0.42097
3880.72359	0.41999
3876.86602	0.42127
3873.00844	0.42160
3869.15086	0.41992
3865.29328	0.41921
3861.43570	0.42167
3857.57812	0.42481
3853.72055	0.42190
3849.86297	0.41882
3846.00539	0.42102
3842.14781	0.42217
3838.29023	0.42232
3834.43266	0.42204
3830.57508	0.42092
3826.71750	0.42111
3822.85992	0.42059
3819.00234	0.42039
3815.14477	0.42142
3811.28719	0.42001
3807.42961	0.41969
3803.57203	0.42150
3799.71445	0.41992
3795.85687	0.41961
3791.99930	0.42084
3788.14172	0.42043
3784.28414	0.42049
3780.42656	0.42103
3776.56898	0.42080
3772.71141	0.42155
3768.85383	0.42026
3764.99625	0.41725
3761.13867	0.41837
3757.28109	0.42166
3753.42352	0.42250
3749.56594	0.42210
3745.70836	0.42344
3741.85078	0.42267
3737.99320	0.42049
3734.13562	0.41946
3730.27805	0.41864
3726.42047	0.41933
3722.56289	0.42174
3718.70531	0.42196
3714.84773	0.42203
3710.99016	0.42167
3707.13258	0.42082
3703.27500	0.42067
3699.41742	0.41906
3695.55984	0.41818
3691.70227	0.41780
3687.84469	0.41646
3683.98711	0.41815
3680.12953	0.41996
3676.27195	0.41862
3672.41437	0.41789
3668.55680	0.41898
3664.69922	0.41866
3660.84164	0.41810
3656.98406	0.41740
3653.12648	0.41656
3649.26891	0.41615
3645.41133	0.41661
3641.55375	0.41716
3637.69617	0.41705
3633.83859	0.41583
3629.98102	0.41530
3626.12344	0.41620
3622.26586	0.41625
3618.40828	0.41619
3614.55070	0.41584
3610.69312	0.41484
3606.83555	0.41549
3602.97797	0.41735
3599.12039	0.41759
3595.26281	0.41670
3591.40523	0.41680
3587.54766	0.41571
3583.69008	0.41478
3579.83250	0.41571
3575.97492	0.41572
3572.11734	0.41515
3568.25977	0.41516
3564.40219	0.41445
3560.54461	0.41484
3556.68703	0.41576
3552.82945	0.41463
3548.97187	0.41289
3545.11430	0.41304
3541.25672	0.41385
3537.39914	0.41395
3533.54156	0.41431
3529.68398	0.41526
3525.82641	0.41530
3521.96883	0.41474
3518.11125	0.41475
3514.25367	0.41471
3510.39609	0.41469
3506.53852	0.41503
3502.68094	0.41505
3498.82336	0.41414
3494.96578	0.41373
3491.10820	0.41450
3487.25062	0.41478
3483.39305	0.41471
3479.53547	0.41519
3475.67789	0.41511
3471.82031	0.41445
3467.96273	0.41445
3464.10516	0.41507
3460.24758	0.41501
3456.39000	0.41442
3452.53242	0.41405
3448.67484	0.41379
3444.81727	0.41417
3440.95969	0.41444
3437.10211	0.41411
3433.24453	0.41440
3429.38695	0.41429
3425.52937	0.41373
3421.67180	0.41447
3417.81422	0.41512
3413.95664	0.41501
3410.09906	0.41486
3406.24148	0.41473
3402.38391	0.41481
3398.52633	0.41453
3394.66875	0.41439
3390.81117	0.41442
3386.95359	0.41419
3383.09602	0.41516
3379.23844	0.41602
3375.38086	0.41542
3371.52328	0.41528
3367.66570	0.41514
3363.80812	0.41479
3359.95055	0.41595
3356.09297	0.41678
3352.23539	0.41593
3348.37781	0.41567
3344.52023	0.41645
3340.66266	0.41679
3336.80508	0.41604
3332.94750	0.41529
3329.08992	0.41546
3325.23234	0.41572
3321.37477	0.41564
3317.51719	0.41554
3313.65961	0.41565
3309.80203	0.41562
3305.94445	0.41562
3302.08687	0.41622
3298.22930	0.41634
3294.37172	0.41545
3290.51414	0.41499
3286.65656	0.41594
3282.79898	0.41672
3278.94141	0.41596
3275.08383	0.41556
3271.22625	0.41620
3267.36867	0.41643
3263.51109	0.41639
3259.65352	0.41634
3255.79594	0.41629
3251.93836	0.41639
3248.08078	0.41614
3244.22320	0.41556
3240.36562	0.41559
3236.50805	0.41617
3232.65047	0.41662
3228.79289	0.41669
3224.93531	0.41598
3221.07773	0.41543
3217.22016	0.41612
3213.36258	0.41654
3209.50500	0.41619
3205.64742	0.41611
3201.78984	0.41607
3197.93227	0.41608
3194.07469	0.41633
3190.21711	0.41667
3186.35953	0.41698
3182.50195	0.41705
3178.64437	0.41711
3174.78680	0.41719
3170.92922	0.41723
3167.07164	0.41741
3163.21406	0.41733
3159.35648	0.41693
3155.49891	0.41677
3151.64133	0.41699
3147.78375	0.41728
3143.92617	0.41742
3140.06859	0.41741
3136.21102	0.41689
3132.35344	0.41648
3128.49586	0.41728
3124.63828	0.41801
3120.78070	0.41767
3116.92312	0.41754
3113.06555	0.41790
3109.20797	0.41784
3105.35039	0.41748
3101.49281	0.41729
3097.63523	0.41743
3093.77766	0.41779
3089.92008	0.41781
3086.06250	0.41752
3082.20492	0.41720
3078.34734	0.41672
3074.48977	0.41668
3070.63219	0.41714
3066.77461	0.41728
3062.91703	0.41763
3059.05945	0.41833
3055.20187	0.41852
3051.34430	0.41836
3047.48672	0.41793
3043.62914	0.41740
3039.77156	0.41729
3035.91398	0.41748
3032.05641	0.41794
3028.19883	0.41829
3024.34125	0.41809
3020.48367	0.41788
3016.62609	0.41779
3012.76852	0.41737
3008.91094	0.41719
3005.05336	0.41766
3001.19578	0.41798
2997.33820	0.41799
2993.48062	0.41788
2989.62305	0.41765
2985.76547	0.41765
2981.90789	0.41795
2978.05031	0.41823
2974.19273	0.41783
2970.33516	0.41705
2966.47758	0.41669
2962.62000	0.41649
2958.76242	0.41628
2954.90484	0.41606
2951.04727	0.41603
2947.18969	0.41639
2943.33211	0.41671
2939.47453	0.41679
2935.61695	0.41652
2931.75937	0.41598
2927.90180	0.41549
2924.04422	0.41490
2920.18664	0.41420
2916.32906	0.41410
2912.47148	0.41512
2908.61391	0.41637
2904.75633	0.41677
2900.89875	0.41671
2897.04117	0.41666
2893.18359	0.41676
2889.32602	0.41719
2885.46844	0.41741
2881.61086	0.41720
2877.75328	0.41713
2873.89570	0.41721
2870.03812	0.41727
2866.18055	0.41747
2862.32297	0.41764
2858.46539	0.41760
2854.60781	0.41730
2850.75023	0.41709
2846.89266	0.41732
2843.03508	0.41793
2839.17750	0.41866
2835.31992	0.41905
2831.46234	0.41919
2827.60477	0.41959
2823.74719	0.41998
2819.88961	0.41998
2816.03203	0.41982
2812.17445	0.41983
2808.31687	0.42002
2804.45930	0.41994
2800.60172	0.41978
2796.74414	0.41985
2792.88656	0.41977
2789.02898	0.41981
2785.17141	0.42001
2781.31383	0.42008
2777.45625	0.42035
2773.59867	0.42060
2769.74109	0.42066
2765.88352	0.42069
2762.02594	0.42057
2758.16836	0.42054
2754.31078	0.42056
2750.45320	0.42035
2746.59562	0.42036
2742.73805	0.42076
2738.88047	0.42093
2735.02289	0.42059
2731.16531	0.42042
2727.30773	0.42060
2723.45016	0.42044
2719.59258	0.42034
2715.73500	0.42067
2711.87742	0.42092
2708.01984	0.42105
2704.16227	0.42101
2700.30469	0.42113
2696.44711	0.42154
2692.58953	0.42145
2688.73195	0.42112
2684.87437	0.42115
2681.01680	0.42108
2677.15922	0.42100
2673.30164	0.42131
2669.44406	0.42154
2665.58648	0.42130
2661.72891	0.42107
2657.87133	0.42105
2654.01375	0.42106
2650.15617	0.42124
2646.29859	0.42154
2642.44102	0.42151
2638.58344	0.42125
2634.72586	0.42121
2630.86828	0.42132
2627.01070	0.42145
2623.15312	0.42165
2619.29555	0.42171
2615.43797	0.42159
2611.58039	0.42157
2607.72281	0.42169
2603.86523	0.42160
2600.00766	0.42156
2596.15008	0.42176
2592.29250	0.42174
2588.43492	0.42168
2584.57734	0.42174
2580.71977	0.42187
2576.86219	0.42212
2573.00461	0.42208
2569.14703	0.42196
2565.28945	0.42203
2561.43187	0.42193
2557.57430	0.42175
2553.71672	0.42164
2549.85914	0.42150
2546.00156	0.42161
2542.14398	0.42202
2538.28641	0.42194
2534.42883	0.42159
2530.57125	0.42174
2526.71367	0.42207
2522.85609	0.42230
2518.99852	0.42218
2515.14094	0.42174
2511.28336	0.42168
2507.42578	0.42189
2503.56820	0.42205
2499.71062	0.42225
2495.85305	0.42231
2491.99547	0.42229
2488.13789	0.42249
2484.28031	0.42255
2480.42273	0.42252
2476.56516	0.42273
2472.70758	0.42297
2468.85000	0.42307
2464.99242	0.42286
2461.13484	0.42247
2457.27727	0.42235
2453.41969	0.42264
2449.56211	0.42304
2445.70453	0.42304
2441.84695	0.42304
2437.98937	0.42330
2434.13180	0.42315
2430.27422	0.42292
2426.41664	0.42299
2422.55906	0.42311
2418.70148	0.42328
2414.84391	0.42339
2410.98633	0.42334
2407.12875	0.42325
2403.27117	0.42323
2399.41359	0.42340
2395.55602	0.42359
2391.69844	0.42355
2387.84086	0.42289
2383.98328	0.42149
2380.12570	0.41972
2376.26812	0.41746
2372.41055	0.41560
2368.55297	0.41721
2364.69539	0.41779
2360.83781	0.41404
2356.98023	0.41220
2353.12266	0.41390
2349.26508	0.41619
2345.40750	0.41633
2341.54992	0.41360
2337.69234	0.41245
2333.83477	0.41208
2329.97719	0.41265
2326.11961	0.41394
2322.26203	0.41530
2318.40445	0.41618
2314.54687	0.41640
2310.68930	0.41780
2306.83172	0.41977
2302.97414	0.42075
2299.11656	0.42131
2295.25898	0.42202
2291.40141	0.42271
2287.54383	0.42334
2283.68625	0.42392
2279.82867	0.42402
2275.97109	0.42383
2272.11352	0.42415
2268.25594	0.42440
2264.39836	0.42428
2260.54078	0.42440
2256.68320	0.42479
2252.82562	0.42499
2248.96805	0.42490
2245.11047	0.42492
2241.25289	0.42513
2237.39531	0.42523
2233.53773	0.42526
2229.68016	0.42522
2225.82258	0.42514
2221.96500	0.42537
2218.10742	0.42534
2214.24984	0.42502
2210.39227	0.42520
2206.53469	0.42545
2202.67711	0.42550
2198.81953	0.42559
2194.96195	0.42560
2191.10437	0.42559
2187.24680	0.42565
2183.38922	0.42579
2179.53164	0.42592
2175.67406	0.42595
2171.81648	0.42606
2167.95891	0.42619
2164.10133	0.42617
2160.24375	0.42607
2156.38617	0.42604
2152.52859	0.42613
2148.67102	0.42621
2144.81344	0.42636
2140.95586	0.42657
2137.09828	0.42650
2133.24070	0.42636
2129.38312	0.42646
2125.52555	0.42654
2121.66797	0.42659
2117.81039	0.42673
2113.95281	0.42689
2110.09523	0.42695
2106.23766	0.42685
2102.38008	0.42688
2098.52250	0.42716
2094.66492	0.42737
2090.80734	0.42728
2086.94977	0.42704
2083.09219	0.42695
2079.23461	0.42721
2075.37703	0.42746
2071.51945	0.42736
2067.66187	0.42767
2063.80430	0.42821
2059.94672	0.42797
2056.08914	0.42774
2052.23156	0.42787
2048.37398	0.42785
2044.51641	0.42801
2040.65883	0.42802
2036.80125	0.42778
2032.94367	0.42784
2029.08609	0.42784
2025.22852	0.42798
2021.37094	0.42792
2017.51336	0.42735
2013.65578	0.42754
2009.79820	0.42796
2005.94062	0.42806
2002.08305	0.42831
1998.22547	0.42910
1994.36789	0.43050
1990.51031	0.43017
1986.65273	0.42833
1982.79516	0.42786
1978.93758	0.42822
1975.08000	0.42812
1971.22242	0.42766
1967.36484	0.42823
1963.50727	0.42929
1959.64969	0.42937
1955.79211	0.42926
1951.93453	0.42949
1948.07695	0.43110
1944.21937	0.43169
1940.36180	0.42903
1936.50422	0.42836
1932.64664	0.42944
1928.78906	0.43064
1924.93148	0.43087
1921.07391	0.42731
1917.21633	0.42704
1913.35875	0.43057
1909.50117	0.43021
1905.64359	0.42945
1901.78602	0.42963
1897.92844	0.42925
1894.07086	0.43077
1890.21328	0.43035
1886.35570	0.42815
1882.49812	0.42894
1878.64055	0.43038
1874.78297	0.43031
1870.92539	0.42905
1867.06781	0.42852
1863.21023	0.42942
1859.35266	0.43030
1855.49508	0.43080
1851.63750	0.43187
1847.77992	0.43605
1843.92234	0.43702
1840.06477	0.43282
1836.20719	0.43094
1832.34961	0.42646
1828.49203	0.42396
1824.63445	0.43152
1820.77687	0.43530
1816.91930	0.43393
1813.06172	0.43350
1809.20414	0.43108
1805.34656	0.42747
1801.48898	0.42579
1797.63141	0.42702
1793.77383	0.43291
1789.91625	0.43748
1786.05867	0.43618
1782.20109	0.43112
1778.34352	0.42923
1774.48594	0.43821
1770.62836	0.44309
1766.77078	0.43756
1762.91320	0.43452
1759.05562	0.43039
1755.19805	0.43221
1751.34047	0.43404
1747.48289	0.42337
1743.62531	0.42443
1739.76773	0.43249
1735.91016	0.42819
1732.05258	0.42833
1728.19500	0.43548
1724.33742	0.43586
1720.47984	0.43127
1716.62227	0.42036
1712.76469	0.42454
1708.90711	0.43107
1705.04953	0.42878
1701.19195	0.43722
1697.33437	0.44729
1693.47680	0.43523
1689.61922	0.42591
1685.76164	0.42643
1681.90406	0.43818
1678.04648	0.43440
1674.18891	0.42338
1670.33133	0.42667
1666.47375	0.43322
1662.61617	0.43088
1658.75859	0.42951
1654.90102	0.42995
1651.04344	0.42719
1647.18586	0.42711
1643.32828	0.42923
1639.47070	0.42747
1635.61312	0.42498
1631.75555	0.43233
1627.89797	0.44157
1624.04039	0.44363
1620.18281	0.43841
1616.32523	0.43238
1612.46766	0.42918
1608.61008	0.43130
1604.75250	0.43301
1600.89492	0.43262
1597.03734	0.43457
1593.17977	0.43521
1589.32219	0.43391
1585.46461	0.43371
1581.60703	0.43106
1577.74945	0.42493
1573.89187	0.42049
1570.03430	0.42766
1566.17672	0.43945
1562.31914	0.44357
1558.46156	0.44583
1554.60398	0.43243
1550.74641	0.42190
1546.88883	0.43033
1543.03125	0.44399
1539.17367	0.44115
1535.31609	0.43720
1531.45852	0.43894
1527.60094	0.44772
1523.74336	0.44212
1519.88578	0.42026
1516.02820	0.43107
1512.17062	0.44438
1508.31305	0.44820
1504.45547	0.44832
1500.59789	0.44744
1496.74031	0.44202
1492.88273	0.43127
1489.02516	0.42935
1485.16758	0.43554
1481.31000	0.43639
1477.45242	0.44218
1473.59484	0.44838
1469.73727	0.43736
1465.87969	0.43006
1462.02211	0.43167
1458.16453	0.43670
1454.30695	0.43357
1450.44937	0.42737
1446.59180	0.42934
1442.73422	0.43752
1438.87664	0.44665
1435.01906	0.45191
1431.16148	0.44581
1427.30391	0.44188
1423.44633	0.44638
1419.58875	0.44446
1415.73117	0.43586
1411.87359	0.43378
1408.01602	0.43219
1404.15844	0.43203
1400.30086	0.43100
1396.44328	0.43036
1392.58570	0.43957
1388.72812	0.44637
1384.87055	0.44203
1381.01297	0.43639
1377.15539	0.43811
1373.29781	0.43993
1369.44023	0.43685
1365.58266	0.43604
1361.72508	0.43720
1357.86750	0.43859
1354.00992	0.43869
1350.15234	0.43753
1346.29477	0.43830
1342.43719	0.43718
1338.57961	0.43456
1334.72203	0.43616
1330.86445	0.43806
1327.00687	0.43803
1323.14930	0.43734
1319.29172	0.43701
1315.43414	0.43740
1311.57656	0.43852
1307.71898	0.43948
1303.86141	0.43914
1300.00383	0.43850
1296.14625	0.43852
1292.28867	0.43884
1288.43109	0.43892
1284.57352	0.43870
1280.71594	0.43897
1276.85836	0.43972
1273.00078	0.44005
1269.14320	0.43969
1265.28562	0.43883
1261.42805	0.43827
1257.57047	0.43885
1253.71289	0.43968
1249.85531	0.43979
1245.99773	0.43962
1242.14016	0.43960
1238.28258	0.43970
1234.42500	0.43995
1230.56742	0.44027
1226.70984	0.44030
1222.85227	0.44005
1218.99469	0.44001
1215.13711	0.44008
1211.27953	0.44008
1207.42195	0.44017
1203.56437	0.44016
1199.70680	0.44003
1195.84922	0.44009
1191.99164	0.44031
1188.13406	0.44057
1184.27648	0.44074
1180.41891	0.44051
1176.56133	0.44021
1172.70375	0.44040
1168.84617	0.44070
1164.98859	0.44056
1161.13102	0.44042
1157.27344	0.44062
1153.41586	0.44062
1149.55828	0.44056
1145.70070	0.44090
1141.84312	0.44103
1137.98555	0.44086
1134.12797	0.44079
1130.27039	0.44076
1126.41281	0.44088
1122.55523	0.44099
1118.69766	0.44097
1114.84008	0.44111
1110.98250	0.44120
1107.12492	0.44108
1103.26734	0.44096
1099.40977	0.44099
1095.55219	0.44117
1091.69461	0.44132
1087.83703	0.44141
1083.97945	0.44159
1080.12187	0.44166
1076.26430	0.44173
1072.40672	0.44197
1068.54914	0.44203
1064.69156	0.44198
1060.83398	0.44206
1056.97641	0.44203
1053.11883	0.44191
1049.26125	0.44193
1045.40367	0.44197
1041.54609	0.44189
1037.68852	0.44179
1033.83094	0.44183
1029.97336	0.44188
1026.11578	0.44170
1022.25820	0.44165
1018.40062	0.44192
1014.54305	0.44214
1010.68547	0.44214
1006.82789	0.44202
1002.97031	0.44217
999.11273	0.44242
995.25516	0.44239
991.39758	0.44234
987.54000	0.44251
983.68242	0.44275
979.82484	0.44275
975.96727	0.44276
972.10969	0.44307
968.25211	0.44328
964.39453	0.44302
960.53695	0.44284
956.67937	0.44292
952.82180	0.44264
948.96422	0.44238
945.10664	0.44242
941.24906	0.44256
937.39148	0.44273
933.53391	0.44265
929.67633	0.44248
925.81875	0.44219
921.96117	0.44204
918.10359	0.44249
914.24602	0.44262
910.38844	0.44241
906.53086	0.44248
902.67328	0.44272
898.81570	0.44288
894.95812	0.44241
891.10055	0.44226
887.24297	0.44292
883.38539	0.44315
879.52781	0.44252
875.67023	0.44162
871.81266	0.44157
867.95508	0.44215
864.09750	0.44221
860.23992	0.44209
856.38234	0.44198
852.52477	0.44167
848.66719	0.44141
844.80961	0.44142
840.95203	0.44162
837.09445	0.44183
833.23687	0.44180
829.37930	0.44152
825.52172	0.44168
821.66414	0.44203
817.80656	0.44187
813.94898	0.44176
810.09141	0.44192
806.23383	0.44213
802.37625	0.44193
798.51867	0.44127
794.66109	0.44109
790.80352	0.44082
786.94594	0.44001
783.08836	0.43934
779.23078	0.43890
775.37320	0.43827
771.51562	0.43739
767.65805	0.43755
763.80047	0.43852
759.94289	0.43934
756.08531	0.43995
752.22773	0.44010
748.37016	0.44094
744.51258	0.44157
740.65500	0.44075
736.79742	0.43989
732.93984	0.43929
729.08227	0.43946
725.22469	0.43771
721.36711	0.43416
717.50953	0.43556
713.65195	0.43822
709.79437	0.43799
705.93680	0.43801
702.07922	0.43659
698.22164	0.43483
694.36406	0.43455
690.50648	0.43365
686.64891	0.43254
682.79133	0.43039
678.93375	0.43057
675.07617	0.42794
671.21859	0.42118
667.36102	0.43193
663.50344	0.43898
659.64586	0.43206
655.78828	0.42952
651.93070	0.43044
648.07312	0.43301
644.21555	0.43698
640.35797	0.43704
636.50039	0.43640
632.64281	0.43495
628.78523	0.43509
624.92766	0.43490
621.07008	0.42894
617.21250	0.42617
613.35492	0.43024
609.49734	0.43119
605.63977	0.42976
601.78219	0.43065
597.92461	0.42846
594.06703	0.42268
590.20945	0.42115
586.35187	0.42402
582.49430	0.42415
578.63672	0.41807
574.77914	0.41311
570.92156	0.41319
567.06398	0.41241
563.20641	0.40956
559.34883	0.40375
555.49125	0.39299
551.63367	0.38146
547.77609	0.36899
543.91852	0.35219
540.06094	0.33405
536.20336	0.31850
532.34578	0.30612
528.48820	0.29469
524.63062	0.28724
520.77305	0.28920
516.91547	0.29640
513.05789	0.29794
509.20031	0.29658
505.34273	0.30209
501.48516	0.30704
497.62758	0.30397
493.77000	0.30358
489.91242	0.30767
486.05484	0.31007
482.19727	0.31493
478.33969	0.31726
474.48211	0.31051
470.62453	0.31002
466.76695	0.31446
462.90937	0.30353
459.05180	0.28756
455.19422	0.28718
451.33664	0.29267
447.47906	0.29329
443.62148	0.28945
439.76391	0.28364
435.90633	0.28392
432.04875	0.29232
428.19117	0.29736
424.33359	0.29433
420.47602	0.29304
416.61844	0.30264
412.76086	0.30570
408.90328	0.29747
405.04570	0.29631
401.18812	0.29923
397.33055	0.29166
393.47297	0.31450
389.61539	0.33794
385.75781	0.33187
381.90023	0.31920
378.04266	0.31321
374.18508	0.31538
370.32750	0.32317
366.46992	0.29191
362.61234	0.25873
358.75477	0.28793
354.89719	0.34074
351.03961	0.24685
347.18203	0.11521
343.32445	0.03336
339.46687	-0.48965
335.60930	-0.55111
331.75172	0.01429
327.89414	0.04742
324.03656	-0.11854
320.17898	-0.14852
316.32141	-0.20579
312.46383	-0.23809
308.60625	-0.14934
304.74867	0.03450
300.89109	-0.04474
