14998.26375	1.26800
14994.40617	2.55665
14990.54859	2.17940
14986.69102	3.36842
14982.83344	3.36842
14978.97586	3.36842
14975.11828	3.36842
14971.26070	0.73493
14967.40312	0.73493
14963.54555	0.73493
14959.68797	0.73493
14955.83039	0.83374
14951.97281	0.22126
14948.11523	0.18427
14944.25766	-0.21171
14940.40008	0.96726
14936.54250	0.96726
14932.68492	0.96726
14928.82734	0.29752
14924.96977	0.80251
14921.11219	0.77181
14917.25461	0.79061
14913.39703	1.14707
14909.53945	1.34379
14905.68187	1.34379
14901.82430	0.11552
14897.96672	0.37661
14894.10914	-0.00947
14890.25156	-0.00947
14886.39398	0.29580
14882.53641	0.51479
14878.67883	0.21318
14874.82125	0.09765
14870.96367	0.55097
14867.10609	0.40674
14863.24852	-0.74157
14859.39094	0.37915
14855.53336	1.77237
14851.67578	1.77237
14847.81820	3.61932
14843.96062	2.41937
14840.10305	0.99427
14836.24547	-0.50222
14832.38789	0.29990
14828.53031	0.29990
14824.67273	0.29990
14820.81516	-2.18154
14816.95758	-2.18154
14813.10000	-2.18154
14809.24242	2.28709
14805.38484	2.28709
14801.52727	2.28709
14797.66969	2.28709
14793.81211	2.28709
14789.95453	2.28709
14786.09695	2.28709
14782.23937	2.28709
14778.38180	2.28709
14774.52422	2.28709
14770.66664	2.28709
14766.80906	2.28709
14762.95148	2.28709
14759.09391	2.28709
14755.23633	-2.35506
14751.37875	-1.08759
14747.52117	-1.00529
14743.66359	-3.12155
14739.80602	-2.06495
14735.94844	-1.10907
14732.09086	-0.31619
14728.23328	0.59868
14724.37570	0.32466
14720.51812	0.32466
14716.66055	0.32466
14712.80297	-0.96895
14708.94539	-1.65857
14705.08781	-1.11688
14701.23023	-0.34641
14697.37266	-0.16023
14693.51508	0.88630
14689.65750	0.88630
14685.79992	0.88630
14681.94234	0.88630
14678.08477	0.76721
14674.22719	0.59518
14670.36961	0.67128
14666.51203	-0.50641
14662.65445	-0.50641
14658.79687	-0.50641
14654.93930	-0.50641
14651.08172	0.35805
14647.22414	0.35338
14643.36656	0.37148
14639.50898	0.31795
14635.65141	0.26529
14631.79383	-0.16797
14627.93625	-0.53530
14624.07867	-0.53530
14620.22109	0.83920
14616.36352	0.33044
14612.50594	0.89351
14608.64836	3.94250
14604.79078	3.94250
14600.93320	3.94250
14597.07562	-0.63302
14593.21805	0.26719
14589.36047	1.12715
14585.50289	0.68755
14581.64531	1.02455
14577.78773	1.78631
14573.93016	0.93714
14570.07258	0.29966
14566.21500	0.20846
14562.35742	-0.09397
14558.49984	-0.22278
14554.64227	-0.13088
14550.78469	-1.20409
14546.92711	-1.20409
14543.06953	-1.20409
14539.21195	-1.20409
14535.35437	-1.20409
14531.49680	-0.99377
14527.63922	-1.62940
14523.78164	-1.62940
14519.92406	-0.25251
14516.06648	-0.26005
14512.20891	-0.74749
14508.35133	-0.58484
14504.49375	-1.26945
14500.63617	-1.98345
14496.77859	-1.40776
14492.92102	-1.10399
14489.06344	-1.37999
14485.20586	-0.35037
14481.34828	0.39414
14477.49070	0.39414
14473.63312	0.39414
14469.77555	2.70703
14465.91797	0.01977
14462.06039	0.01977
14458.20281	0.01977
14454.34523	0.01977
14450.48766	0.01977
14446.63008	0.01977
14442.77250	2.86755
14438.91492	2.86755
14435.05734	2.86755
14431.19977	0.09507
14427.34219	0.09507
14423.48461	0.09507
14419.62703	0.09507
14415.76945	1.37179
14411.91187	0.87934
14408.05430	-0.09229
14404.19672	-0.09229
14400.33914	-0.09229
14396.48156	-0.09229
14392.62398	-0.09229
14388.76641	-0.39810
14384.90883	-2.37630
14381.05125	-2.37630
14377.19367	-0.30179
14373.33609	0.20411
14369.47852	-0.31173
14365.62094	-0.70863
14361.76336	-0.43930
14357.90578	0.21489
14354.04820	-0.26963
14350.19062	0.23926
14346.33305	0.81879
14342.47547	2.04581
14338.61789	2.04581
14334.76031	2.04581
14330.90273	0.38413
14327.04516	0.43979
14323.18758	0.17924
14319.33000	0.50735
14315.47242	1.02487
14311.61484	1.02487
14307.75727	1.02487
14303.89969	2.66149
14300.04211	0.45043
14296.18453	1.01254
14292.32695	1.01254
14288.46937	1.01254
14284.61180	1.66306
14280.75422	2.07869
14276.89664	2.07869
14273.03906	2.07869
14269.18148	2.07869
14265.32391	2.07869
14261.46633	2.07869
14257.60875	2.07869
14253.75117	2.63686
14249.89359	1.87988
14246.03602	1.42928
14242.17844	1.42928
14238.32086	1.42928
14234.46328	1.42928
14230.60570	1.42928
14226.74812	-0.67500
14222.89055	-0.67500
14219.03297	-0.67500
14215.17539	0.24081
14211.31781	0.11798
14207.46023	-0.20115
14203.60266	-0.20115
14199.74508	2.33318
14195.88750	0.97457
14192.02992	0.97457
14188.17234	0.97457
14184.31477	0.97457
14180.45719	0.97457
14176.59961	1.87255
14172.74203	0.91858
14168.88445	0.91858
14165.02687	0.91858
14161.16930	-0.06717
14157.31172	-1.61206
14153.45414	-1.61206
14149.59656	0.55921
14145.73898	0.22252
14141.88141	0.25362
14138.02383	1.40170
14134.16625	1.25107
14130.30867	1.25107
14126.45109	1.25107
14122.59352	1.25107
14118.73594	1.25107
14114.87836	1.25107
14111.02078	1.25107
14107.16320	0.82648
14103.30562	1.02888
14099.44805	1.02888
14095.59047	1.02888
14091.73289	1.74521
14087.87531	1.70520
14084.01773	1.70520
14080.16016	0.01204
14076.30258	0.14763
14072.44500	-0.13209
14068.58742	-0.13209
14064.72984	-0.13209
14060.87227	0.98838
14057.01469	-0.13066
14053.15711	-0.13066
14049.29953	-0.43374
14045.44195	0.87254
14041.58437	0.87254
14037.72680	0.87254
14033.86922	0.87254
14030.01164	0.87254
14026.15406	1.92310
14022.29648	0.77063
14018.43891	0.44480
14014.58133	0.09497
14010.72375	-0.01467
14006.86617	-0.06675
14003.00859	0.43028
13999.15102	1.61365
13995.29344	4.59018
13991.43586	4.59018
13987.57828	4.59018
13983.72070	4.59018
13979.86312	1.72021
13976.00555	0.65911
13972.14797	-0.49127
13968.29039	-0.49127
13964.43281	-0.49127
13960.57523	-0.49127
13956.71766	-0.49127
13952.86008	-0.49127
13949.00250	-0.49127
13945.14492	-2.96508
13941.28734	-0.22545
13937.42977	0.54971
13933.57219	0.54971
13929.71461	0.54971
13925.85703	0.54971
13921.99945	0.54971
13918.14187	0.54971
13914.28430	0.54971
13910.42672	0.54971
13906.56914	1.18762
13902.71156	0.34386
13898.85398	-0.18202
13894.99641	0.18585
13891.13883	0.49059
13887.28125	0.44398
13883.42367	0.43528
13879.56609	0.43528
13875.70852	0.43528
13871.85094	0.74532
13867.99336	0.51509
13864.13578	0.69553
13860.27820	1.59174
13856.42062	1.59174
13852.56305	1.59174
13848.70547	1.59174
13844.84789	1.59174
13840.99031	0.46277
13837.13273	-1.10810
13833.27516	-0.60597
13829.41758	0.34458
13825.56000	0.34458
13821.70242	0.18200
13817.84484	-0.29766
13813.98727	-0.55694
13810.12969	-0.75781
13806.27211	0.05252
13802.41453	0.05252
13798.55695	0.05252
13794.69937	0.05252
13790.84180	0.05252
13786.98422	1.80226
13783.12664	2.89808
13779.26906	2.89808
13775.41148	2.89808
13771.55391	1.36248
13767.69633	0.58957
13763.83875	1.69909
13759.98117	2.87331
13756.12359	1.30515
13752.26602	0.64521
13748.40844	0.64521
13744.55086	0.64521
13740.69328	0.35698
13736.83570	-0.24307
13732.97812	0.11196
13729.12055	0.49304
13725.26297	0.40229
13721.40539	0.75952
13717.54781	0.74813
13713.69023	0.18207
13709.83266	0.40969
13705.97508	0.40969
13702.11750	0.40969
13698.25992	0.40969
13694.40234	1.75989
13690.54477	1.05628
13686.68719	0.95545
13682.82961	0.95545
13678.97203	0.95545
13675.11445	1.67658
13671.25687	0.85194
13667.39930	0.63364
13663.54172	-0.43531
13659.68414	-0.43531
13655.82656	-3.26094
13651.96898	-3.26094
13648.11141	-0.03628
13644.25383	0.05636
13640.39625	0.66658
13636.53867	0.43717
13632.68109	-0.02893
13628.82352	0.28278
13624.96594	0.51673
13621.10836	0.64844
13617.25078	0.99925
13613.39320	0.14614
13609.53562	-0.09208
13605.67805	2.27219
13601.82047	2.27219
13597.96289	2.27219
13594.10531	2.27219
13590.24773	2.27219
13586.39016	2.27219
13582.53258	2.27219
13578.67500	0.25493
13574.81742	0.18488
13570.95984	0.40950
13567.10227	0.42841
13563.24469	0.69552
13559.38711	0.89013
13555.52953	0.89013
13551.67195	0.89013
13547.81437	2.48751
13543.95680	1.13516
13540.09922	0.11858
13536.24164	-0.57839
13532.38406	0.06428
13528.52648	0.45586
13524.66891	0.16283
13520.81133	0.44012
13516.95375	1.40938
13513.09617	2.20377
13509.23859	1.15473
13505.38102	0.86630
13501.52344	0.86630
13497.66586	0.86630
13493.80828	0.86630
13489.95070	-1.09868
13486.09312	0.16710
13482.23555	0.11081
13478.37797	0.17973
13474.52039	1.40480
13470.66281	4.06305
13466.80523	1.52665
13462.94766	0.83885
13459.09008	0.83885
13455.23250	0.83885
13451.37492	1.18277
13447.51734	1.18277
13443.65977	1.99387
13439.80219	1.99387
13435.94461	1.99387
13432.08703	-0.19853
13428.22945	-0.34252
13424.37187	0.18792
13420.51430	0.18792
13416.65672	0.70944
13412.79914	0.22777
13408.94156	0.50547
13405.08398	1.05189
13401.22641	3.74654
13397.36883	3.74654
13393.51125	3.74654
13389.65367	0.37280
13385.79609	0.49532
13381.93852	0.44641
13378.08094	0.11388
13374.22336	0.16178
13370.36578	0.33063
13366.50820	0.40214
13362.65062	0.40561
13358.79305	0.83195
13354.93547	0.76110
13351.07789	-0.00625
13347.22031	1.69471
13343.36273	4.98492
13339.50516	4.98492
13335.64758	4.98492
13331.79000	1.51969
13327.93242	0.53360
13324.07484	-0.08573
13320.21727	-0.08573
13316.35969	-0.08573
13312.50211	-1.16701
13308.64453	-1.27347
13304.78695	-2.14787
13300.92937	-0.97963
13297.07180	-0.00018
13293.21422	0.68662
13289.35664	2.59194
13285.49906	2.59194
13281.64148	2.59194
13277.78391	-1.70458
13273.92633	-0.30268
13270.06875	0.19243
13266.21117	0.45884
13262.35359	0.46523
13258.49602	0.28271
13254.63844	0.65346
13250.78086	1.75397
13246.92328	1.62117
13243.06570	0.83318
13239.20812	0.27031
13235.35055	-1.27341
13231.49297	-1.27341
13227.63539	-1.27341
13223.77781	0.61962
13219.92023	0.38250
13216.06266	0.38250
13212.20508	0.38250
13208.34750	0.38250
13204.48992	0.38250
13200.63234	0.38250
13196.77477	1.00084
13192.91719	1.18490
13189.05961	-0.09979
13185.20203	-0.07866
13181.34445	0.56010
13177.48687	0.56010
13173.62930	0.56010
13169.77172	0.56010
13165.91414	0.56010
13162.05656	0.56010
13158.19898	0.56010
13154.34141	0.56010
13150.48383	0.56010
13146.62625	0.56010
13142.76867	0.56010
13138.91109	0.56010
13135.05352	0.56010
13131.19594	0.56010
13127.33836	0.56010
13123.48078	-0.61507
13119.62320	-0.27894
13115.76562	1.19282
13111.90805	1.24817
13108.05047	0.63231
13104.19289	0.79901
13100.33531	2.41774
13096.47773	2.41774
13092.62016	-0.73387
13088.76258	-0.73387
13084.90500	-0.73387
13081.04742	-0.22229
13077.18984	0.37353
13073.33227	0.96239
13069.47469	1.14928
13065.61711	1.14928
13061.75953	1.14928
13057.90195	1.14928
13054.04437	-0.85465
13050.18680	-0.82066
13046.32922	-0.82066
13042.47164	-0.82066
13038.61406	-0.82066
13034.75648	-0.82066
13030.89891	0.43253
13027.04133	2.60648
13023.18375	1.78345
13019.32617	1.78345
13015.46859	1.78345
13011.61102	0.78319
13007.75344	0.59544
13003.89586	0.59544
13000.03828	0.59544
12996.18070	0.51730
12992.32312	0.36436
12988.46555	0.36436
12984.60797	0.36436
12980.75039	0.94647
12976.89281	1.49674
12973.03523	2.08308
12969.17766	2.08308
12965.32008	2.08308
12961.46250	2.08308
12957.60492	2.08308
12953.74734	2.08308
12949.88977	1.23483
12946.03219	0.45582
12942.17461	0.45582
12938.31703	0.80701
12934.45945	0.25175
12930.60187	0.52132
12926.74430	1.16792
12922.88672	0.81487
12919.02914	0.35679
12915.17156	0.45740
12911.31398	1.10099
12907.45641	1.10099
12903.59883	1.10099
12899.74125	1.63158
12895.88367	1.36390
12892.02609	1.50581
12888.16852	1.50581
12884.31094	1.50581
12880.45336	1.50581
12876.59578	1.50581
12872.73820	-1.30348
12868.88062	-0.70670
12865.02305	-0.01026
12861.16547	-0.01026
12857.30789	0.51992
12853.45031	0.99843
12849.59273	0.69595
12845.73516	0.09700
12841.87758	-0.50163
12838.02000	-0.20553
12834.16242	-0.06832
12830.30484	0.00837
12826.44727	0.00837
12822.58969	0.00837
12818.73211	0.00837
12814.87453	0.00837
12811.01695	0.57297
12807.15937	0.27165
12803.30180	0.42234
12799.44422	1.32496
12795.58664	1.32496
12791.72906	1.32496
12787.87148	1.32496
12784.01391	1.32496
12780.15633	0.53090
12776.29875	-0.03921
12772.44117	-1.99840
12768.58359	-3.08744
12764.72602	0.54584
12760.86844	1.15626
12757.01086	1.85777
12753.15328	1.85777
12749.29570	1.85777
12745.43812	1.85777
12741.58055	1.85777
12737.72297	0.54977
12733.86539	0.84382
12730.00781	1.01007
12726.15023	0.66749
12722.29266	0.66749
12718.43508	0.66749
12714.57750	0.66749
12710.71992	0.66749
12706.86234	0.66749
12703.00477	0.66749
12699.14719	0.82476
12695.28961	0.82476
12691.43203	2.63115
12687.57445	0.56950
12683.71687	0.56950
12679.85930	0.56950
12676.00172	0.56950
12672.14414	0.56950
12668.28656	0.56950
12664.42898	0.56950
12660.57141	0.56950
12656.71383	0.56950
12652.85625	3.08322
12648.99867	0.57821
12645.14109	0.18008
12641.28352	0.21442
12637.42594	0.69585
12633.56836	0.69585
12629.71078	1.96519
12625.85320	1.96519
12621.99562	1.96519
12618.13805	1.96519
12614.28047	1.96519
12610.42289	0.72744
12606.56531	-0.82818
12602.70773	-1.53202
12598.85016	-2.06763
12594.99258	-2.06763
12591.13500	-2.06763
12587.27742	-1.12378
12583.41984	-1.51542
12579.56227	-1.25365
12575.70469	-0.65937
12571.84711	-0.75952
12567.98953	-0.62681
12564.13195	0.02840
12560.27437	0.33142
12556.41680	0.55160
12552.55922	0.10615
12548.70164	-0.01106
12544.84406	-0.01106
12540.98648	-0.01106
12537.12891	-0.01106
12533.27133	-1.94711
12529.41375	0.21034
12525.55617	0.21034
12521.69859	0.21034
12517.84102	0.46342
12513.98344	-0.03039
12510.12586	-0.03039
12506.26828	-0.03039
12502.41070	0.41399
12498.55312	0.54433
12494.69555	1.90913
12490.83797	0.71661
12486.98039	-0.18778
12483.12281	0.05502
12479.26523	-0.51154
12475.40766	-2.16448
12471.55008	-2.16448
12467.69250	-2.16448
12463.83492	-2.16448
12459.97734	-2.16448
12456.11977	-2.16448
12452.26219	-2.16448
12448.40461	-2.16448
12444.54703	-2.16448
12440.68945	-2.16448
12436.83187	-2.16448
12432.97430	-2.16448
12429.11672	-2.16448
12425.25914	-2.16448
12421.40156	3.06460
12417.54398	3.30606
12413.68641	3.30606
12409.82883	-2.83100
12405.97125	1.90890
12402.11367	1.90890
12398.25609	1.90890
12394.39852	4.35643
12390.54094	2.00171
12386.68336	0.51190
12382.82578	0.51190
12378.96820	0.51190
12375.11062	0.51190
12371.25305	0.51190
12367.39547	0.26550
12363.53789	0.56661
12359.68031	0.56661
12355.82273	0.56661
12351.96516	0.56661
12348.10758	1.87076
12344.25000	1.20250
12340.39242	0.63803
12336.53484	1.34693
12332.67727	1.77864
12328.81969	1.67083
12324.96211	1.87621
12321.10453	1.87621
12317.24695	1.87621
12313.38937	1.87621
12309.53180	0.22950
12305.67422	0.78391
12301.81664	0.78391
12297.95906	3.72640
12294.10148	0.92305
12290.24391	0.92305
12286.38633	0.92305
12282.52875	-4.56132
12278.67117	-1.02295
12274.81359	-0.47870
12270.95602	-0.47870
12267.09844	-0.47870
12263.24086	-0.47870
12259.38328	2.17776
12255.52570	2.00075
12251.66812	2.00075
12247.81055	1.40460
12243.95297	0.25702
12240.09539	0.72928
12236.23781	0.44229
12232.38023	-0.12962
12228.52266	0.00072
12224.66508	0.34336
12220.80750	0.80929
12216.94992	1.36652
12213.09234	0.98622
12209.23477	0.70106
12205.37719	1.06923
12201.51961	1.06923
12197.66203	1.06923
12193.80445	0.14872
12189.94687	-0.54422
12186.08930	0.71292
12182.23172	0.62862
12178.37414	0.51008
12174.51656	0.51008
12170.65898	-0.08458
12166.80141	-1.82557
12162.94383	-1.28670
12159.08625	-0.46145
12155.22867	-0.46145
12151.37109	4.56398
12147.51352	0.85581
12143.65594	0.85581
12139.79836	0.85581
12135.94078	0.85581
12132.08320	0.85581
12128.22562	0.65011
12124.36805	0.37126
12120.51047	0.88590
12116.65289	1.93274
12112.79531	0.92889
12108.93773	0.13382
12105.08016	-1.88725
12101.22258	1.40689
12097.36500	3.45970
12093.50742	1.14395
12089.64984	0.94842
12085.79227	0.70721
12081.93469	0.95271
12078.07711	3.91154
12074.21953	4.21828
12070.36195	4.21828
12066.50437	4.21828
12062.64680	0.76712
12058.78922	0.90131
12054.93164	0.90131
12051.07406	0.90131
12047.21648	1.30776
12043.35891	0.41851
12039.50133	0.41851
12035.64375	0.76866
12031.78617	0.35458
12027.92859	0.35458
12024.07102	0.35458
12020.21344	0.35458
12016.35586	0.35458
12012.49828	-3.15870
12008.64070	0.15712
12004.78312	0.71313
12000.92555	0.84392
11997.06797	0.84392
11993.21039	0.84392
11989.35281	1.50485
11985.49523	1.04461
11981.63766	0.40411
11977.78008	-1.69913
11973.92250	-0.04785
11970.06492	0.30837
11966.20734	0.30837
11962.34977	1.65626
11958.49219	1.65626
11954.63461	1.65626
11950.77703	0.36843
11946.91945	0.36843
11943.06187	0.36843
11939.20430	0.42418
11935.34672	0.32888
11931.48914	1.29929
11927.63156	0.32102
11923.77398	-0.52876
11919.91641	0.54268
11916.05883	2.44664
11912.20125	3.43164
11908.34367	3.43164
11904.48609	-0.99553
11900.62852	-0.13691
11896.77094	-0.31859
11892.91336	-0.31859
11889.05578	0.65059
11885.19820	0.65059
11881.34062	-1.49686
11877.48305	0.63619
11873.62547	0.63619
11869.76789	0.63619
11865.91031	0.63619
11862.05273	0.63619
11858.19516	0.63619
11854.33758	0.63619
11850.48000	0.63619
11846.62242	0.63837
11842.76484	0.63837
11838.90727	0.63837
11835.04969	-0.00221
11831.19211	0.02893
11827.33453	0.35930
11823.47695	1.30250
11819.61937	2.10384
11815.76180	0.94620
11811.90422	0.94620
11808.04664	0.94620
11804.18906	0.94620
11800.33148	0.94620
11796.47391	0.94620
11792.61633	0.94620
11788.75875	0.94620
11784.90117	0.94620
11781.04359	0.94620
11777.18602	0.94620
11773.32844	0.94620
11769.47086	0.92223
11765.61328	-0.93193
11761.75570	-1.42652
11757.89812	-1.42652
11754.04055	-1.42652
11750.18297	-1.42652
11746.32539	-1.42652
11742.46781	-1.42652
11738.61023	-0.95692
11734.75266	-0.50985
11730.89508	0.44387
11727.03750	0.44387
11723.17992	0.44387
11719.32234	0.44387
11715.46477	-0.48896
11711.60719	0.07062
11707.74961	0.07062
11703.89203	0.07062
11700.03445	3.78027
11696.17687	3.78027
11692.31930	3.78027
11688.46172	3.78027
11684.60414	2.05368
11680.74656	0.78077
11676.88898	0.78077
11673.03141	0.78077
11669.17383	0.61737
11665.31625	-0.51547
11661.45867	0.03546
11657.60109	3.70693
11653.74352	3.70693
11649.88594	-2.25214
11646.02836	-1.93572
11642.17078	-0.84409
11638.31320	0.13119
11634.45562	0.46658
11630.59805	0.00366
11626.74047	-0.59749
11622.88289	-0.18056
11619.02531	0.34277
11615.16773	0.35753
11611.31016	1.05258
11607.45258	1.05258
11603.59500	1.05258
11599.73742	1.05258
11595.87984	1.05258
11592.02227	1.05258
11588.16469	1.05258
11584.30711	0.42578
11580.44953	0.89414
11576.59195	0.89414
11572.73437	0.89414
11568.87680	0.89414
11565.01922	0.89414
11561.16164	-0.28745
11557.30406	-0.45967
11553.44648	-0.45967
11549.58891	-0.45967
11545.73133	-0.45967
11541.87375	0.80528
11538.01617	-0.00717
11534.15859	-0.00717
11530.30102	-0.58509
11526.44344	0.42113
11522.58586	0.42113
11518.72828	0.42113
11514.87070	1.27246
11511.01312	4.08083
11507.15555	2.40808
11503.29797	0.26640
11499.44039	2.31110
11495.58281	2.31110
11491.72523	2.31110
11487.86766	2.31110
11484.01008	-5.49170
11480.15250	-0.86441
11476.29492	-0.86441
11472.43734	-0.86441
11468.57977	-0.86441
11464.72219	-0.86441
11460.86461	-0.86441
11457.00703	-0.86441
11453.14945	-1.23927
11449.29187	0.12484
11445.43430	1.10919
11441.57672	1.10919
11437.71914	1.04875
11433.86156	4.07181
11430.00398	4.07181
11426.14641	4.07181
11422.28883	4.07181
11418.43125	4.07181
11414.57367	4.07181
11410.71609	4.07181
11406.85852	4.07181
11403.00094	4.07181
11399.14336	4.07181
11395.28578	1.92232
11391.42820	2.76822
11387.57062	2.76822
11383.71305	2.76822
11379.85547	2.76822
11375.99789	2.76822
11372.14031	2.76822
11368.28273	2.76822
11364.42516	2.76822
11360.56758	0.23512
11356.71000	0.23512
11352.85242	2.39091
11348.99484	-0.09908
11345.13727	-0.51611
11341.27969	1.51765
11337.42211	1.62151
11333.56453	0.50684
11329.70695	0.24404
11325.84937	-0.28127
11321.99180	-0.47944
11318.13422	2.03715
11314.27664	2.40838
11310.41906	0.56915
11306.56148	-0.49455
11302.70391	-0.28510
11298.84633	0.77058
11294.98875	0.77058
11291.13117	0.77058
11287.27359	0.77058
11283.41602	0.46505
11279.55844	0.90500
11275.70086	0.90500
11271.84328	0.90500
11267.98570	2.58104
11264.12812	1.78592
11260.27055	1.32738
11256.41297	1.25927
11252.55539	1.25927
11248.69781	1.25927
11244.84023	1.25927
11240.98266	1.11234
11237.12508	1.21780
11233.26750	2.04666
11229.40992	2.04666
11225.55234	2.04666
11221.69477	0.38518
11217.83719	0.25795
11213.97961	-0.16354
11210.12203	-0.70640
11206.26445	0.17194
11202.40687	0.17194
11198.54930	0.17194
11194.69172	0.17194
11190.83414	0.17194
11186.97656	0.17194
11183.11898	0.38370
11179.26141	0.21077
11175.40383	-0.09289
11171.54625	-0.62143
11167.68867	0.18080
11163.83109	0.79940
11159.97352	1.78835
11156.11594	2.99964
11152.25836	0.15770
11148.40078	-0.87368
11144.54320	-0.87368
11140.68562	-0.87368
11136.82805	-0.87368
11132.97047	-0.87368
11129.11289	-0.21586
11125.25531	0.70897
11121.39773	0.70897
11117.54016	0.70897
11113.68258	0.70897
11109.82500	0.70897
11105.96742	0.70897
11102.10984	0.70897
11098.25227	-0.48191
11094.39469	-1.85569
11090.53711	-1.85569
11086.67953	-1.85569
11082.82195	-1.85569
11078.96437	-0.26614
11075.10680	0.39370
11071.24922	2.74073
11067.39164	2.74073
11063.53406	2.74073
11059.67648	2.74073
11055.81891	2.74073
11051.96133	2.74073
11048.10375	2.74073
11044.24617	2.74073
11040.38859	2.74073
11036.53102	2.74073
11032.67344	2.74073
11028.81586	2.74073
11024.95828	2.74073
11021.10070	0.23056
11017.24312	0.23056
11013.38555	0.23056
11009.52797	0.23056
11005.67039	0.23056
11001.81281	0.23056
10997.95523	0.23056
10994.09766	0.23056
10990.24008	0.23056
10986.38250	0.64149
10982.52492	1.17034
10978.66734	1.17034
10974.80977	1.17034
10970.95219	1.17034
10967.09461	1.17034
10963.23703	1.17034
10959.37945	1.17034
10955.52187	0.33121
10951.66430	0.71978
10947.80672	0.71978
10943.94914	0.71978
10940.09156	0.71978
10936.23398	0.71978
10932.37641	0.71978
10928.51883	3.38871
10924.66125	2.14065
10920.80367	2.14065
10916.94609	2.14065
10913.08852	0.82896
10909.23094	0.18920
10905.37336	0.18920
10901.51578	0.18920
10897.65820	1.63123
10893.80062	1.63123
10889.94305	1.63123
10886.08547	0.69944
10882.22789	0.83623
10878.37031	2.66735
10874.51273	0.92965
10870.65516	0.28670
10866.79758	0.28670
10862.94000	0.16777
10859.08242	-0.23721
10855.22484	-0.23721
10851.36727	-0.23721
10847.50969	0.46682
10843.65211	0.85932
10839.79453	2.56849
10835.93695	2.56849
10832.07937	2.56849
10828.22180	2.56849
10824.36422	1.38331
10820.50664	1.09293
10816.64906	0.06338
10812.79148	-2.22109
10808.93391	0.20441
10805.07633	0.87015
10801.21875	0.64755
10797.36117	0.64755
10793.50359	0.64755
10789.64602	0.64755
10785.78844	0.64755
10781.93086	0.64755
10778.07328	0.64755
10774.21570	0.64755
10770.35812	0.64755
10766.50055	0.64755
10762.64297	0.59423
10758.78539	-0.00019
10754.92781	0.14360
10751.07023	0.37448
10747.21266	0.37448
10743.35508	0.37448
10739.49750	0.37448
10735.63992	0.37448
10731.78234	0.37448
10727.92477	0.37448
10724.06719	0.37448
10720.20961	-0.14596
10716.35203	0.10444
10712.49445	0.10444
10708.63687	0.10444
10704.77930	1.55684
10700.92172	0.22199
10697.06414	0.22199
10693.20656	0.22199
10689.34898	1.73112
10685.49141	2.30599
10681.63383	2.30599
10677.77625	2.30599
10673.91867	2.30599
10670.06109	0.31587
10666.20352	-0.10468
10662.34594	0.87326
10658.48836	0.87326
10654.63078	0.87326
10650.77320	0.01828
10646.91562	0.01828
10643.05805	0.01828
10639.20047	-0.63872
10635.34289	-0.26053
10631.48531	0.05819
10627.62773	0.13232
10623.77016	0.39351
10619.91258	1.91944
10616.05500	3.45312
10612.19742	2.19852
10608.33984	0.63938
10604.48227	0.60122
10600.62469	0.60122
10596.76711	-0.26567
10592.90953	-0.46905
10589.05195	0.22046
10585.19437	2.29151
10581.33680	2.29151
10577.47922	0.64109
10573.62164	1.48480
10569.76406	1.75788
10565.90648	1.46629
10562.04891	1.15247
10558.19133	0.81668
10554.33375	0.79064
10550.47617	0.79064
10546.61859	0.79064
10542.76102	0.79064
10538.90344	1.17293
10535.04586	0.07021
10531.18828	0.07021
10527.33070	-0.95197
10523.47312	-0.19398
10519.61555	-0.19398
10515.75797	-0.19398
10511.90039	-0.19398
10508.04281	-0.19398
10504.18523	-0.19398
10500.32766	-1.65082
10496.47008	0.04031
10492.61250	0.68153
10488.75492	0.59546
10484.89734	0.59546
10481.03977	0.59546
10477.18219	0.59546
10473.32461	0.59546
10469.46703	0.59546
10465.60945	0.59546
10461.75187	0.59546
10457.89430	0.59546
10454.03672	1.88360
10450.17914	1.88360
10446.32156	0.90925
10442.46398	0.96760
10438.60641	0.96760
10434.74883	0.96760
10430.89125	-0.14926
10427.03367	-0.14926
10423.17609	-0.14926
10419.31852	0.60809
10415.46094	0.26182
10411.60336	0.63181
10407.74578	0.63181
10403.88820	0.63181
10400.03062	0.63181
10396.17305	0.63181
10392.31547	0.63181
10388.45789	0.63181
10384.60031	0.63181
10380.74273	0.63181
10376.88516	1.85968
10373.02758	1.85968
10369.17000	1.95880
10365.31242	-0.23052
10361.45484	-0.23052
10357.59727	-0.23052
10353.73969	-0.18085
10349.88211	-0.11540
10346.02453	-0.11540
10342.16695	-0.11540
10338.30937	-0.43773
10334.45180	-0.20215
10330.59422	1.17389
10326.73664	1.17389
10322.87906	1.17389
10319.02148	-0.99909
10315.16391	2.63273
10311.30633	2.63273
10307.44875	2.63273
10303.59117	2.63273
10299.73359	2.63273
10295.87602	-0.08463
10292.01844	-0.02773
10288.16086	0.79600
10284.30328	0.79600
10280.44570	0.52171
10276.58812	0.35141
10272.73055	0.35141
10268.87297	0.35141
10265.01539	0.35141
10261.15781	0.35141
10257.30023	0.35141
10253.44266	-0.98706
10249.58508	1.25156
10245.72750	1.25156
10241.86992	1.25156
10238.01234	1.25156
10234.15477	1.25156
10230.29719	1.92282
10226.43961	1.91519
10222.58203	1.74116
10218.72445	1.54492
10214.86687	1.45818
10211.00930	1.15213
10207.15172	1.76028
10203.29414	1.76028
10199.43656	1.76028
10195.57898	1.76028
10191.72141	1.76028
10187.86383	-1.15674
10184.00625	-1.15674
10180.14867	-1.15674
10176.29109	-1.15674
10172.43352	-1.15674
10168.57594	0.63641
10164.71836	0.26375
10160.86078	1.24427
10157.00320	0.39086
10153.14562	0.39086
10149.28805	0.39086
10145.43047	0.39086
10141.57289	0.39086
10137.71531	1.07632
10133.85773	0.37408
10130.00016	0.37408
10126.14258	0.37408
10122.28500	0.37408
10118.42742	0.37408
10114.56984	5.42789
10110.71227	3.16456
10106.85469	2.44124
10102.99711	1.17912
10099.13953	0.88414
10095.28195	0.51241
10091.42437	0.61090
10087.56680	0.61090
10083.70922	1.27334
10079.85164	0.10095
10075.99406	-0.72708
10072.13648	-0.72708
10068.27891	3.42922
10064.42133	0.81034
10060.56375	0.40583
10056.70617	0.14548
10052.84859	0.14548
10048.99102	0.14548
10045.13344	0.14548
10041.27586	0.38049
10037.41828	0.51506
10033.56070	3.37941
10029.70312	3.25650
10025.84555	0.51501
10021.98797	0.51501
10018.13039	0.51501
10014.27281	-2.71871
10010.41523	-0.80325
10006.55766	0.35310
10002.70008	0.35310
9998.84250	0.35310
9994.98492	0.35310
9991.12734	5.32793
9987.26977	2.23998
9983.41219	2.32878
9979.55461	0.66193
9975.69703	0.66193
9971.83945	0.66193
9967.98187	0.66193
9964.12430	0.66193
9960.26672	0.66193
9956.40914	-1.13850
9952.55156	-0.31578
9948.69398	0.41282
9944.83641	0.08417
9940.97883	0.55882
9937.12125	0.55882
9933.26367	0.55882
9929.40609	0.55882
9925.54852	0.55882
9921.69094	0.55882
9917.83336	0.55882
9913.97578	0.23579
9910.11820	0.09753
9906.26062	0.09753
9902.40305	0.09753
9898.54547	0.09753
9894.68789	0.88615
9890.83031	2.37758
9886.97273	1.57350
9883.11516	0.81433
9879.25758	0.31426
9875.40000	-0.28581
9871.54242	-0.28581
9867.68484	-4.47136
9863.82727	-1.78091
9859.96969	0.72190
9856.11211	3.01543
9852.25453	3.01543
9848.39695	0.47571
9844.53937	0.83747
9840.68180	0.83747
9836.82422	0.83747
9832.96664	0.83747
9829.10906	0.83747
9825.25148	0.83747
9821.39391	0.83747
9817.53633	0.83747
9813.67875	3.09350
9809.82117	0.34848
9805.96359	0.34848
9802.10602	0.34848
9798.24844	0.34848
9794.39086	0.34848
9790.53328	0.72240
9786.67570	-0.20242
9782.81812	-0.36030
9778.96055	-0.19562
9775.10297	-0.19562
9771.24539	-0.19562
9767.38781	2.18127
9763.53023	1.42671
9759.67266	-0.50755
9755.81508	-0.65964
9751.95750	0.08030
9748.09992	1.32072
9744.24234	1.32072
9740.38477	1.32072
9736.52719	1.32072
9732.66961	1.32072
9728.81203	1.32072
9724.95445	-0.18184
9721.09687	0.25890
9717.23930	0.98478
9713.38172	1.97809
9709.52414	0.04641
9705.66656	-0.30955
9701.80898	-0.65128
9697.95141	-0.65128
9694.09383	-0.65128
9690.23625	-0.65128
9686.37867	-0.40989
9682.52109	0.00455
9678.66352	1.02801
9674.80594	1.18458
9670.94836	0.79420
9667.09078	1.22446
9663.23320	1.22446
9659.37562	-2.39248
9655.51805	0.25417
9651.66047	0.14965
9647.80289	-0.42080
9643.94531	0.38025
9640.08773	0.38025
9636.23016	0.38025
9632.37258	0.38025
9628.51500	2.16329
9624.65742	4.61660
9620.79984	4.61660
9616.94227	4.61660
9613.08469	4.61660
9609.22711	4.61660
9605.36953	-1.41279
9601.51195	-0.91174
9597.65437	0.35318
9593.79680	0.18616
9589.93922	0.07865
9586.08164	0.54359
9582.22406	1.67618
9578.36648	2.75639
9574.50891	3.23553
9570.65133	3.23553
9566.79375	3.23553
9562.93617	3.23746
9559.07859	3.23746
9555.22102	3.23746
9551.36344	0.56921
9547.50586	-1.33653
9543.64828	0.16594
9539.79070	1.63613
9535.93312	1.63613
9532.07555	1.63613
9528.21797	1.63613
9524.36039	1.63613
9520.50281	1.63613
9516.64523	1.63613
9512.78766	-0.01897
9508.93008	0.03540
9505.07250	0.03540
9501.21492	0.03540
9497.35734	2.94154
9493.49977	0.18395
9489.64219	-0.13959
9485.78461	2.70532
9481.92703	2.70532
9478.06945	2.70532
9474.21187	2.70532
9470.35430	2.70532
9466.49672	2.70532
9462.63914	1.32566
9458.78156	1.04970
9454.92398	1.04970
9451.06641	1.04970
9447.20883	1.04970
9443.35125	1.04970
9439.49367	1.54920
9435.63609	0.89651
9431.77852	0.14814
9427.92094	0.14814
9424.06336	0.14814
9420.20578	-0.14824
9416.34820	-0.14824
9412.49062	-0.14824
9408.63305	-0.14824
9404.77547	0.49201
9400.91789	0.46978
9397.06031	0.48868
9393.20273	0.24552
9389.34516	0.51664
9385.48758	0.10603
9381.63000	-0.08098
9377.77242	0.48297
9373.91484	0.01928
9370.05727	-0.35499
9366.19969	-0.04339
9362.34211	0.26209
9358.48453	0.26209
9354.62695	0.26209
9350.76937	0.26209
9346.91180	-0.10246
9343.05422	0.89084
9339.19664	0.89084
9335.33906	0.89084
9331.48148	0.89084
9327.62391	0.89084
9323.76633	0.89084
9319.90875	0.89084
9316.05117	0.89084
9312.19359	1.06871
9308.33602	1.09347
9304.47844	0.03647
9300.62086	0.03647
9296.76328	-0.35842
9292.90570	-0.12096
9289.04812	0.08407
9285.19055	0.32981
9281.33297	0.47212
9277.47539	0.89028
9273.61781	1.40052
9269.76023	0.67336
9265.90266	0.67336
9262.04508	0.67336
9258.18750	0.67336
9254.32992	0.67336
9250.47234	0.67336
9246.61477	0.67336
9242.75719	0.67336
9238.89961	0.67336
9235.04203	0.67336
9231.18445	0.67336
9227.32687	0.67336
9223.46930	0.67336
9219.61172	0.67336
9215.75414	0.67336
9211.89656	0.67336
9208.03898	2.73159
9204.18141	2.01504
9200.32383	1.22877
9196.46625	-0.66633
9192.60867	-0.11145
9188.75109	-0.11145
9184.89352	-0.11145
9181.03594	0.09960
9177.17836	-0.05090
9173.32078	0.24410
9169.46320	2.02682
9165.60562	1.00717
9161.74805	1.00717
9157.89047	1.00717
9154.03289	1.00717
9150.17531	-0.81347
9146.31773	-0.19990
9142.46016	0.11188
9138.60258	0.22387
9134.74500	0.31037
9130.88742	0.10431
9127.02984	0.01817
9123.17227	1.02660
9119.31469	1.02660
9115.45711	0.81821
9111.59953	-0.09202
9107.74195	-0.11646
9103.88437	0.11966
9100.02680	0.70037
9096.16922	0.94941
9092.31164	-0.59550
9088.45406	-0.43233
9084.59648	-0.43233
9080.73891	-0.43233
9076.88133	1.55515
9073.02375	0.42956
9069.16617	-0.08620
9065.30859	-0.27034
9061.45102	-0.27034
9057.59344	-0.66646
9053.73586	-0.40753
9049.87828	0.24690
9046.02070	0.59395
9042.16312	0.74089
9038.30555	0.38782
9034.44797	-0.68807
9030.59039	0.75307
9026.73281	1.30773
9022.87523	0.03278
9019.01766	0.03278
9015.16008	0.03278
9011.30250	0.03278
9007.44492	0.03278
9003.58734	1.68975
8999.72977	1.70729
8995.87219	1.04594
8992.01461	1.08468
8988.15703	1.08468
8984.29945	1.08468
8980.44187	1.08468
8976.58430	3.11956
8972.72672	3.70668
8968.86914	2.42822
8965.01156	2.42822
8961.15398	-1.76624
8957.29641	-1.48085
8953.43883	-1.48085
8949.58125	1.70700
8945.72367	1.70700
8941.86609	1.70700
8938.00852	1.70700
8934.15094	1.70700
8930.29336	1.70700
8926.43578	1.70700
8922.57820	1.70700
8918.72062	1.70700
8914.86305	0.24286
8911.00547	0.41121
8907.14789	0.90820
8903.29031	1.14037
8899.43273	1.20811
8895.57516	1.14334
8891.71758	0.74400
8887.86000	0.56759
8884.00242	0.53802
8880.14484	0.55679
8876.28727	0.67322
8872.42969	0.64290
8868.57211	0.73489
8864.71453	4.07781
8860.85695	10.51473
8856.99937	2.47856
8853.14180	1.06946
8849.28422	1.74612
8845.42664	0.94836
8841.56906	-0.18540
8837.71148	-0.19742
8833.85391	0.21776
8829.99633	1.53878
8826.13875	1.31588
8822.28117	0.18438
8818.42359	0.45825
8814.56602	0.87470
8810.70844	0.34306
8806.85086	-0.11771
8802.99328	0.33395
8799.13570	1.08054
8795.27812	1.71556
8791.42055	1.40614
8787.56297	0.30111
8783.70539	0.06914
8779.84781	0.49728
8775.99023	0.72187
8772.13266	0.82874
8768.27508	0.64433
8764.41750	0.11489
8760.55992	-0.62074
8756.70234	3.06045
8752.84477	0.85427
8748.98719	0.18291
8745.12961	0.37442
8741.27203	1.87959
8737.41445	1.94281
8733.55687	1.18932
8729.69930	0.42054
8725.84172	-0.14955
8721.98414	-0.06097
8718.12656	0.24227
8714.26898	0.46710
8710.41141	0.73892
8706.55383	1.39320
8702.69625	2.27883
8698.83867	0.36771
8694.98109	0.06958
8691.12352	-0.94915
8687.26594	-0.91252
8683.40836	-0.13802
8679.55078	-0.70902
8675.69320	0.60400
8671.83562	8.43798
8667.97805	2.99091
8664.12047	0.85783
8660.26289	0.07110
8656.40531	1.14630
8652.54773	1.19006
8648.69016	1.99481
8644.83258	5.51866
8640.97500	1.21253
8637.11742	0.30809
8633.25984	0.08353
8629.40227	-0.88806
8625.54469	1.45173
8621.68711	0.75888
8617.82953	0.29657
8613.97195	0.03910
8610.11437	-0.35190
8606.25680	-0.63704
8602.39922	-0.52298
8598.54164	-0.59764
8594.68406	-0.36371
8590.82648	0.36528
8586.96891	0.80674
8583.11133	0.56509
8579.25375	0.46347
8575.39617	0.29026
8571.53859	0.06421
8567.68102	0.10155
8563.82344	0.50673
8559.96586	0.33179
8556.10828	-0.22448
8552.25070	-0.16493
8548.39312	0.70970
8544.53555	0.55443
8540.67797	0.75881
8536.82039	0.64833
8532.96281	0.45164
8529.10523	0.24987
8525.24766	-0.64369
8521.39008	-0.84005
8517.53250	0.16795
8513.67492	0.50550
8509.81734	0.55957
8505.95977	0.50295
8502.10219	0.61496
8498.24461	0.33507
8494.38703	-0.07357
8490.52945	-0.05183
8486.67187	0.22313
8482.81430	0.25446
8478.95672	0.17261
8475.09914	-0.17678
8471.24156	-0.16176
8467.38398	0.12667
8463.52641	0.12667
8459.66883	0.12667
8455.81125	0.12667
8451.95367	0.12667
8448.09609	0.12667
8444.23852	0.12667
8440.38094	0.12667
8436.52336	-1.84421
8432.66578	-1.84421
8428.80820	-1.84421
8424.95062	-1.84421
8421.09305	-1.84421
8417.23547	-1.84421
8413.37789	-1.84421
8409.52031	-1.84421
8405.66273	-1.84421
8401.80516	-1.84421
8397.94758	-1.84421
8394.09000	-1.84421
8390.23242	-1.84421
8386.37484	-1.84421
8382.51727	-1.84421
8378.65969	-1.84421
8374.80211	-1.84421
8370.94453	-1.84421
8367.08695	-1.84421
8363.22937	-1.84421
8359.37180	-1.84421
8355.51422	-1.84421
8351.65664	-1.84421
8347.79906	-1.84421
8343.94148	-1.84421
8340.08391	-1.84421
8336.22633	-1.84421
8332.36875	-1.84421
8328.51117	-1.84421
8324.65359	-1.84421
8320.79602	-1.84421
8316.93844	-1.84421
8313.08086	-1.84421
8309.22328	-1.84421
8305.36570	-1.84421
8301.50812	-1.84421
8297.65055	-1.84421
8293.79297	-1.84421
8289.93539	-3.32054
8286.07781	-1.22328
8282.22023	-1.11108
8278.36266	-0.38634
8274.50508	0.24394
8270.64750	0.24394
8266.78992	-0.31592
8262.93234	0.09820
8259.07477	0.38403
8255.21719	1.24647
8251.35961	-0.21415
8247.50203	-2.01128
8243.64445	-0.65320
8239.78687	0.13370
8235.92930	0.45252
8232.07172	-0.22672
8228.21414	-0.69195
8224.35656	-0.27906
8220.49898	0.07641
8216.64141	0.07641
8212.78383	-0.75060
8208.92625	-0.20515
8205.06867	-1.58660
8201.21109	-1.58660
8197.35352	-7.23898
8193.49594	-2.57712
8189.63836	-0.81944
8185.78078	0.73573
8181.92320	0.91740
8178.06562	0.91740
8174.20805	0.91740
8170.35047	0.49085
8166.49289	0.18916
8162.63531	0.36842
8158.77773	0.67332
8154.92016	1.07787
8151.06258	1.52267
8147.20500	1.27351
8143.34742	1.13425
8139.48984	-0.26739
8135.63227	-0.22306
8131.77469	0.39158
8127.91711	0.43489
8124.05953	0.50610
8120.20195	0.50610
8116.34437	0.50610
8112.48680	0.50610
8108.62922	0.38400
8104.77164	-0.30237
8100.91406	0.01424
8097.05648	0.22782
8093.19891	-0.22409
8089.34133	-0.22409
8085.48375	-0.29043
8081.62617	1.52428
8077.76859	3.62239
8073.91102	1.80940
8070.05344	0.08557
8066.19586	0.08030
8062.33828	1.54120
8058.48070	1.54120
8054.62312	1.54120
8050.76555	1.54120
8046.90797	0.02656
8043.05039	-0.40782
8039.19281	-1.18317
8035.33523	-1.18317
8031.47766	0.88856
8027.62008	0.14023
8023.76250	0.14023
8019.90492	0.14023
8016.04734	0.14023
8012.18977	0.14023
8008.33219	0.46604
8004.47461	0.10200
8000.61703	0.26910
7996.75945	0.26910
7992.90187	0.26910
7989.04430	-0.61261
7985.18672	0.10725
7981.32914	0.94771
7977.47156	2.20580
7973.61398	1.21710
7969.75641	0.69240
7965.89883	1.89178
7962.04125	2.59083
7958.18367	0.06680
7954.32609	0.61484
7950.46852	1.05996
7946.61094	0.63260
7942.75336	0.64473
7938.89578	0.32524
7935.03820	-1.18885
7931.18062	-1.08118
7927.32305	1.44029
7923.46547	1.44029
7919.60789	1.44029
7915.75031	1.44029
7911.89273	1.44029
7908.03516	1.46922
7904.17758	0.23354
7900.32000	0.40459
7896.46242	0.40459
7892.60484	0.40459
7888.74727	0.49672
7884.88969	0.49672
7881.03211	0.49672
7877.17453	3.46728
7873.31695	1.16814
7869.45937	1.13132
7865.60180	1.88349
7861.74422	1.88349
7857.88664	1.88349
7854.02906	1.44523
7850.17148	1.44523
7846.31391	5.58934
7842.45633	0.94554
7838.59875	0.64879
7834.74117	0.87620
7830.88359	0.64853
7827.02602	0.04833
7823.16844	0.74861
7819.31086	0.97874
7815.45328	0.49069
7811.59570	0.43672
7807.73812	0.58930
7803.88055	0.45536
7800.02297	0.29011
7796.16539	0.45217
7792.30781	0.57942
7788.45023	0.44908
7784.59266	0.56119
7780.73508	0.65200
7776.87750	0.51984
7773.01992	0.70069
7769.16234	1.14654
7765.30477	0.96846
7761.44719	0.66224
7757.58961	0.72083
7753.73203	0.79662
7749.87445	1.02210
7746.01687	0.72887
7742.15930	0.41904
7738.30172	0.57192
7734.44414	0.50009
7730.58656	0.37819
7726.72898	0.46401
7722.87141	0.89875
7719.01383	1.14766
7715.15625	0.40148
7711.29867	0.36455
7707.44109	0.71131
7703.58352	0.65444
7699.72594	0.45465
7695.86836	0.08150
7692.01078	0.13708
7688.15320	0.41387
7684.29562	0.48655
7680.43805	0.59263
7676.58047	0.78567
7672.72289	0.84126
7668.86531	0.63191
7665.00773	0.37721
7661.15016	0.18174
7657.29258	0.33532
7653.43500	0.59472
7649.57742	0.58100
7645.71984	0.48746
7641.86227	0.56393
7638.00469	0.81013
7634.14711	0.77102
7630.28953	0.47589
7626.43195	0.30860
7622.57437	0.25931
7618.71680	0.59232
7614.85922	0.92963
7611.00164	0.63196
7607.14406	0.31250
7603.28648	0.25748
7599.42891	0.33389
7595.57133	0.35122
7591.71375	0.20308
7587.85617	0.22221
7583.99859	0.48484
7580.14102	0.33167
7576.28344	0.30249
7572.42586	0.40925
7568.56828	0.37019
7564.71070	0.29069
7560.85312	0.30370
7556.99555	0.33413
7553.13797	0.39766
7549.28039	0.52175
7545.42281	0.54918
7541.56523	0.41758
7537.70766	0.38509
7533.85008	0.33580
7529.99250	0.26997
7526.13492	0.33758
7522.27734	0.46835
7518.41977	0.68129
7514.56219	0.74895
7510.70461	0.67271
7506.84703	0.80755
7502.98945	0.78699
7499.13187	0.50892
7495.27430	0.34982
7491.41672	0.35370
7487.55914	0.43564
7483.70156	0.51693
7479.84398	0.46615
7475.98641	0.39074
7472.12883	0.53682
7468.27125	0.75333
7464.41367	0.60383
7460.55609	0.48037
7456.69852	0.60310
7452.84094	0.69163
7448.98336	0.57986
7445.12578	0.42691
7441.26820	0.35633
7437.41062	0.44486
7433.55305	0.59836
7429.69547	0.57563
7425.83789	0.50512
7421.98031	0.50717
7418.12273	0.45774
7414.26516	0.51079
7410.40758	0.64099
7406.55000	0.51134
7402.69242	0.46462
7398.83484	0.59171
7394.97727	0.55109
7391.11969	0.44832
7387.26211	0.39151
7383.40453	0.36767
7379.54695	0.40951
7375.68937	0.47673
7371.83180	0.53394
7367.97422	0.61622
7364.11664	0.54753
7360.25906	0.38738
7356.40148	0.49040
7352.54391	0.69702
7348.68633	0.63153
7344.82875	0.56880
7340.97117	0.51005
7337.11359	0.45573
7333.25602	0.44948
7329.39844	0.37904
7325.54086	0.37352
7321.68328	0.41161
7317.82570	0.37313
7313.96812	0.47916
7310.11055	0.64795
7306.25297	0.56449
7302.39539	0.48229
7298.53781	0.42576
7294.68023	0.29532
7290.82266	0.27607
7286.96508	0.40380
7283.10750	0.46367
7279.24992	0.44971
7275.39234	0.44484
7271.53477	0.44192
7267.67719	0.46881
7263.81961	0.47455
7259.96203	0.44195
7256.10445	0.47364
7252.24687	0.46951
7248.38930	0.36141
7244.53172	0.34179
7240.67414	0.45562
7236.81656	0.46715
7232.95898	0.37750
7229.10141	0.44276
7225.24383	0.53983
7221.38625	0.52727
7217.52867	0.47416
7213.67109	0.43512
7209.81352	0.40069
7205.95594	0.37940
7202.09836	0.40223
7198.24078	0.42697
7194.38320	0.39239
7190.52562	0.44861
7186.66805	0.58932
7182.81047	0.47843
7178.95289	0.30801
7175.09531	0.37785
7171.23773	0.45596
7167.38016	0.41404
7163.52258	0.41732
7159.66500	0.43016
7155.80742	0.42449
7151.94984	0.47412
7148.09227	0.59830
7144.23469	0.60566
7140.37711	0.48163
7136.51953	0.46151
7132.66195	0.44274
7128.80437	0.40733
7124.94680	0.43654
7121.08922	0.45154
7117.23164	0.44665
7113.37406	0.48855
7109.51648	0.56003
7105.65891	0.60292
7101.80133	0.60118
7097.94375	0.57834
7094.08617	0.50074
7090.22859	0.45385
7086.37102	0.47491
7082.51344	0.51208
7078.65586	0.53245
7074.79828	0.52869
7070.94070	0.54941
7067.08312	0.55284
7063.22555	0.49205
7059.36797	0.44132
7055.51039	0.47493
7051.65281	0.57558
7047.79523	0.54982
7043.93766	0.41630
7040.08008	0.40719
7036.22250	0.43969
7032.36492	0.41070
7028.50734	0.41160
7024.64977	0.47495
7020.79219	0.56320
7016.93461	0.55170
7013.07703	0.47345
7009.21945	0.46666
7005.36187	0.47304
7001.50430	0.44225
6997.64672	0.43777
6993.78914	0.44992
6989.93156	0.43871
6986.07398	0.42475
6982.21641	0.44128
6978.35883	0.46433
6974.50125	0.42133
6970.64367	0.40349
6966.78609	0.43955
6962.92852	0.40131
6959.07094	0.43068
6955.21336	0.55329
6951.35578	0.55779
6947.49820	0.53760
6943.64062	0.55047
6939.78305	0.50347
6935.92547	0.43089
6932.06789	0.40854
6928.21031	0.43930
6924.35273	0.45636
6920.49516	0.43704
6916.63758	0.45168
6912.78000	0.51721
6908.92242	0.56097
6905.06484	0.54385
6901.20727	0.49614
6897.34969	0.47314
6893.49211	0.45195
6889.63453	0.41073
6885.77695	0.43391
6881.91937	0.45991
6878.06180	0.44012
6874.20422	0.46432
6870.34664	0.49684
6866.48906	0.48306
6862.63148	0.44950
6858.77391	0.41316
6854.91633	0.42406
6851.05875	0.46085
6847.20117	0.43145
6843.34359	0.41263
6839.48602	0.45429
6835.62844	0.47137
6831.77086	0.46458
6827.91328	0.45224
6824.05570	0.41444
6820.19812	0.38096
6816.34055	0.39260
6812.48297	0.47717
6808.62539	0.52657
6804.76781	0.48626
6800.91023	0.46705
6797.05266	0.46335
6793.19508	0.46348
6789.33750	0.48058
6785.47992	0.48318
6781.62234	0.50918
6777.76477	0.51380
6773.90719	0.46262
6770.04961	0.45696
6766.19203	0.45080
6762.33445	0.41396
6758.47687	0.45392
6754.61930	0.49660
6750.76172	0.47792
6746.90414	0.48198
6743.04656	0.45548
6739.18898	0.41269
6735.33141	0.46496
6731.47383	0.52791
6727.61625	0.50589
6723.75867	0.49595
6719.90109	0.50574
6716.04352	0.48034
6712.18594	0.47941
6708.32836	0.51365
6704.47078	0.50419
6700.61320	0.44402
6696.75562	0.41908
6692.89805	0.44703
6689.04047	0.46864
6685.18289	0.46769
6681.32531	0.47016
6677.46773	0.48254
6673.61016	0.48373
6669.75258	0.47141
6665.89500	0.47921
6662.03742	0.47284
6658.17984	0.45787
6654.32227	0.49354
6650.46469	0.51964
6646.60711	0.49755
6642.74953	0.48427
6638.89195	0.48563
6635.03437	0.48300
6631.17680	0.47909
6627.31922	0.48056
6623.46164	0.47624
6619.60406	0.46660
6615.74648	0.46121
6611.88891	0.43804
6608.03133	0.42738
6604.17375	0.45438
6600.31617	0.45089
6596.45859	0.43060
6592.60102	0.45919
6588.74344	0.49152
6584.88586	0.48674
6581.02828	0.48141
6577.17070	0.47907
6573.31312	0.45214
6569.45555	0.43752
6565.59797	0.45733
6561.74039	0.45296
6557.88281	0.45461
6554.02523	0.49093
6550.16766	0.48194
6546.31008	0.45376
6542.45250	0.43213
6538.59492	0.41014
6534.73734	0.43241
6530.87977	0.42989
6527.02219	0.39852
6523.16461	0.41771
6519.30703	0.43751
6515.44945	0.43164
6511.59187	0.40970
6507.73430	0.39907
6503.87672	0.44683
6500.01914	0.47153
6496.16156	0.45892
6492.30398	0.45915
6488.44641	0.42652
6484.58883	0.41561
6480.73125	0.45558
6476.87367	0.44889
6473.01609	0.42744
6469.15852	0.44627
6465.30094	0.46072
6461.44336	0.46566
6457.58578	0.46981
6453.72820	0.46770
6449.87062	0.48382
6446.01305	0.49192
6442.15547	0.47804
6438.29789	0.47743
6434.44031	0.46880
6430.58273	0.45834
6426.72516	0.47833
6422.86758	0.48596
6419.01000	0.46961
6415.15242	0.46747
6411.29484	0.45979
6407.43727	0.44290
6403.57969	0.44612
6399.72211	0.45628
6395.86453	0.46775
6392.00695	0.46643
6388.14937	0.44395
6384.29180	0.45403
6380.43422	0.47242
6376.57664	0.45299
6372.71906	0.44908
6368.86148	0.44712
6365.00391	0.43024
6361.14633	0.45619
6357.28875	0.49129
6353.43117	0.49315
6349.57359	0.48646
6345.71602	0.47598
6341.85844	0.47707
6338.00086	0.48114
6334.14328	0.45845
6330.28570	0.45261
6326.42812	0.48241
6322.57055	0.47567
6318.71297	0.44104
6314.85539	0.43706
6310.99781	0.42798
6307.14023	0.42820
6303.28266	0.46163
6299.42508	0.46974
6295.56750	0.45762
6291.70992	0.46420
6287.85234	0.48136
6283.99477	0.47252
6280.13719	0.44505
6276.27961	0.45255
6272.42203	0.47949
6268.56445	0.48850
6264.70687	0.48324
6260.84930	0.46628
6256.99172	0.44784
6253.13414	0.45450
6249.27656	0.47873
6245.41898	0.46813
6241.56141	0.44444
6237.70383	0.44511
6233.84625	0.44058
6229.98867	0.44750
6226.13109	0.46392
6222.27352	0.45565
6218.41594	0.45107
6214.55836	0.44648
6210.70078	0.43507
6206.84320	0.43675
6202.98562	0.43204
6199.12805	0.44118
6195.27047	0.47287
6191.41289	0.46880
6187.55531	0.44619
6183.69773	0.45604
6179.84016	0.47213
6175.98258	0.46882
6172.12500	0.45565
6168.26742	0.45800
6164.40984	0.47383
6160.55227	0.46052
6156.69469	0.45521
6152.83711	0.48468
6148.97953	0.47993
6145.12195	0.45850
6141.26437	0.46054
6137.40680	0.46328
6133.54922	0.46748
6129.69164	0.46173
6125.83406	0.44455
6121.97648	0.43889
6118.11891	0.43635
6114.26133	0.43395
6110.40375	0.44286
6106.54617	0.45789
6102.68859	0.46447
6098.83102	0.45767
6094.97344	0.45165
6091.11586	0.44892
6087.25828	0.44251
6083.40070	0.45075
6079.54312	0.46291
6075.68555	0.45219
6071.82797	0.44390
6067.97039	0.44262
6064.11281	0.42742
6060.25523	0.42720
6056.39766	0.44497
6052.54008	0.44044
6048.68250	0.44118
6044.82492	0.46945
6040.96734	0.46976
6037.10977	0.44594
6033.25219	0.43688
6029.39461	0.43306
6025.53703	0.43695
6021.67945	0.45364
6017.82187	0.45589
6013.96430	0.44938
6010.10672	0.45889
6006.24914	0.45294
6002.39156	0.44338
5998.53398	0.45557
5994.67641	0.44926
5990.81883	0.42968
5986.96125	0.42135
5983.10367	0.43982
5979.24609	0.46519
5975.38852	0.44971
5971.53094	0.43305
5967.67336	0.43239
5963.81578	0.43650
5959.95820	0.44771
5956.10062	0.43250
5952.24305	0.42490
5948.38547	0.45219
5944.52789	0.46108
5940.67031	0.43991
5936.81273	0.41893
5932.95516	0.41982
5929.09758	0.44102
5925.24000	0.45141
5921.38242	0.44406
5917.52484	0.44314
5913.66727	0.44915
5909.80969	0.44977
5905.95211	0.45295
5902.09453	0.45952
5898.23695	0.45814
5894.37937	0.44554
5890.52180	0.43269
5886.66422	0.44508
5882.80664	0.45675
5878.94906	0.43449
5875.09148	0.42677
5871.23391	0.44127
5867.37633	0.45078
5863.51875	0.46298
5859.66117	0.46225
5855.80359	0.45099
5851.94602	0.44897
5848.08844	0.45234
5844.23086	0.45917
5840.37328	0.45818
5836.51570	0.45010
5832.65812	0.45172
5828.80055	0.45365
5824.94297	0.45071
5821.08539	0.45147
5817.22781	0.44066
5813.37023	0.42969
5809.51266	0.43762
5805.65508	0.43608
5801.79750	0.42758
5797.93992	0.43341
5794.08234	0.43660
5790.22477	0.43049
5786.36719	0.43287
5782.50961	0.44351
5778.65203	0.44378
5774.79445	0.44420
5770.93687	0.44897
5767.07930	0.44311
5763.22172	0.43375
5759.36414	0.43035
5755.50656	0.44033
5751.64898	0.44893
5747.79141	0.44272
5743.93383	0.43661
5740.07625	0.43044
5736.21867	0.43060
5732.36109	0.44378
5728.50352	0.45257
5724.64594	0.44250
5720.78836	0.42863
5716.93078	0.43228
5713.07320	0.44138
5709.21562	0.44796
5705.35805	0.45039
5701.50047	0.44968
5697.64289	0.45963
5693.78531	0.45928
5689.92773	0.44854
5686.07016	0.45087
5682.21258	0.44976
5678.35500	0.44165
5674.49742	0.43376
5670.63984	0.43133
5666.78227	0.44285
5662.92469	0.45371
5659.06711	0.44911
5655.20953	0.43204
5651.35195	0.42640
5647.49437	0.43960
5643.63680	0.43879
5639.77922	0.42679
5635.92164	0.43374
5632.06406	0.44799
5628.20648	0.44635
5624.34891	0.43811
5620.49133	0.43528
5616.63375	0.43191
5612.77617	0.42842
5608.91859	0.42711
5605.06102	0.42798
5601.20344	0.43116
5597.34586	0.42871
5593.48828	0.42697
5589.63070	0.43120
5585.77312	0.43192
5581.91555	0.43341
5578.05797	0.43616
5574.20039	0.43463
5570.34281	0.43607
5566.48523	0.43539
5562.62766	0.42942
5558.77008	0.42959
5554.91250	0.43173
5551.05492	0.43127
5547.19734	0.42610
5543.33977	0.41634
5539.48219	0.41544
5535.62461	0.41880
5531.76703	0.42314
5527.90945	0.43149
5524.05187	0.43403
5520.19430	0.43566
5516.33672	0.43445
5512.47914	0.43527
5508.62156	0.44226
5504.76398	0.43057
5500.90641	0.42226
5497.04883	0.43218
5493.19125	0.43644
5489.33367	0.43961
5485.47609	0.43698
5481.61852	0.42859
5477.76094	0.42731
5473.90336	0.42529
5470.04578	0.42786
5466.18820	0.43630
5462.33062	0.43550
5458.47305	0.42853
5454.61547	0.42354
5450.75789	0.42459
5446.90031	0.43801
5443.04273	0.44569
5439.18516	0.43346
5435.32758	0.42619
5431.47000	0.42658
5427.61242	0.42548
5423.75484	0.43514
5419.89727	0.44167
5416.03969	0.42926
5412.18211	0.41812
5408.32453	0.42030
5404.46695	0.42190
5400.60937	0.42336
5396.75180	0.42059
5392.89422	0.41696
5389.03664	0.42399
5385.17906	0.42983
5381.32148	0.42851
5377.46391	0.43025
5373.60633	0.43215
5369.74875	0.43159
5365.89117	0.43329
5362.03359	0.43517
5358.17602	0.43985
5354.31844	0.44307
5350.46086	0.43129
5346.60328	0.42550
5342.74570	0.43407
5338.88812	0.43171
5335.03055	0.42717
5331.17297	0.42987
5327.31539	0.42629
5323.45781	0.42129
5319.60023	0.42271
5315.74266	0.42716
5311.88508	0.43033
5308.02750	0.43289
5304.16992	0.43516
5300.31234	0.43097
5296.45477	0.42471
5292.59719	0.42376
5288.73961	0.42431
5284.88203	0.42922
5281.02445	0.43141
5277.16687	0.42168
5273.30930	0.42064
5269.45172	0.43053
5265.59414	0.43634
5261.73656	0.43479
5257.87898	0.42770
5254.02141	0.42713
5250.16383	0.43172
5246.30625	0.42896
5242.44867	0.42417
5238.59109	0.42344
5234.73352	0.42562
5230.87594	0.42143
5227.01836	0.41666
5223.16078	0.42286
5219.30320	0.43012
5215.44562	0.43534
5211.58805	0.43547
5207.73047	0.43243
5203.87289	0.43083
5200.01531	0.42376
5196.15773	0.42285
5192.30016	0.43189
5188.44258	0.43180
5184.58500	0.42325
5180.72742	0.41922
5176.86984	0.42018
5173.01227	0.42301
5169.15469	0.42606
5165.29711	0.42886
5161.43953	0.43323
5157.58195	0.43155
5153.72437	0.42236
5149.86680	0.41948
5146.00922	0.41896
5142.15164	0.41448
5138.29406	0.41493
5134.43648	0.42002
5130.57891	0.41950
5126.72133	0.41510
5122.86375	0.41971
5119.00617	0.43018
5115.14859	0.43077
5111.29102	0.42249
5107.43344	0.41866
5103.57586	0.41797
5099.71828	0.41399
5095.86070	0.41914
5092.00312	0.42941
5088.14555	0.42626
5084.28797	0.42401
5080.43039	0.42546
5076.57281	0.41767
5072.71523	0.41632
5068.85766	0.42256
5065.00008	0.42167
5061.14250	0.41766
5057.28492	0.41834
5053.42734	0.42395
5049.56977	0.42604
5045.71219	0.42646
5041.85461	0.43023
5037.99703	0.42963
5034.13945	0.42577
5030.28187	0.42385
5026.42430	0.42511
5022.56672	0.42414
5018.70914	0.41977
5014.85156	0.42280
5010.99398	0.42368
5007.13641	0.41898
5003.27883	0.42516
4999.42125	0.43205
4995.56367	0.42635
4991.70609	0.41653
4987.84852	0.41494
4983.99094	0.42303
4980.13336	0.42299
4976.27578	0.41839
4972.41820	0.42460
4968.56062	0.42387
4964.70305	0.41496
4960.84547	0.41640
4956.98789	0.42231
4953.13031	0.42467
4949.27273	0.42213
4945.41516	0.42025
4941.55758	0.42154
4937.70000	0.41732
4933.84242	0.41399
4929.98484	0.41658
4926.12727	0.41694
4922.26969	0.41859
4918.41211	0.42348
4914.55453	0.42324
4910.69695	0.42257
4906.83937	0.42466
4902.98180	0.42196
4899.12422	0.42151
4895.26664	0.42572
4891.40906	0.42608
4887.55148	0.42379
4883.69391	0.42034
4879.83633	0.41820
4875.97875	0.41973
4872.12117	0.42110
4868.26359	0.41916
4864.40602	0.41704
4860.54844	0.41861
4856.69086	0.41869
4852.83328	0.41924
4848.97570	0.42407
4845.11812	0.42286
4841.26055	0.41858
4837.40297	0.42171
4833.54539	0.42441
4829.68781	0.42171
4825.83023	0.42061
4821.97266	0.42419
4818.11508	0.42765
4814.25750	0.42374
4810.39992	0.41550
4806.54234	0.41333
4802.68477	0.41779
4798.82719	0.42234
4794.96961	0.42293
4791.11203	0.42297
4787.25445	0.42481
4783.39687	0.42236
4779.53930	0.42047
4775.68172	0.42545
4771.82414	0.42489
4767.96656	0.41999
4764.10898	0.42046
4760.25141	0.41829
4756.39383	0.41670
4752.53625	0.41915
4748.67867	0.41658
4744.82109	0.41723
4740.96352	0.42283
4737.10594	0.42263
4733.24836	0.41960
4729.39078	0.41562
4725.53320	0.41386
4721.67562	0.41967
4717.81805	0.42289
4713.96047	0.41951
4710.10289	0.41920
4706.24531	0.42090
4702.38773	0.42155
4698.53016	0.42343
4694.67258	0.42322
4690.81500	0.42111
4686.95742	0.41940
4683.09984	0.41808
4679.24227	0.41988
4675.38469	0.42023
4671.52711	0.41857
4667.66953	0.42188
4663.81195	0.42424
4659.95437	0.42176
4656.09680	0.41908
4652.23922	0.41889
4648.38164	0.42102
4644.52406	0.41983
4640.66648	0.41831
4636.80891	0.42091
4632.95133	0.42026
4629.09375	0.41644
4625.23617	0.41797
4621.37859	0.42545
4617.52102	0.42869
4613.66344	0.42470
4609.80586	0.42163
4605.94828	0.42150
4602.09070	0.42211
4598.23312	0.42109
4594.37555	0.42025
4590.51797	0.42267
4586.66039	0.42317
4582.80281	0.42182
4578.94523	0.42261
4575.08766	0.42146
4571.23008	0.41767
4567.37250	0.41853
4563.51492	0.42392
4559.65734	0.42522
4555.79977	0.42243
4551.94219	0.42089
4548.08461	0.42168
4544.22703	0.42170
4540.36945	0.42021
4536.51187	0.42188
4532.65430	0.42402
4528.79672	0.42408
4524.93914	0.42472
4521.08156	0.42273
4517.22398	0.41979
4513.36641	0.42071
4509.50883	0.42403
4505.65125	0.42559
4501.79367	0.42290
4497.93609	0.42092
4494.07852	0.42087
4490.22094	0.41941
4486.36336	0.41988
4482.50578	0.42152
4478.64820	0.42126
4474.79062	0.42292
4470.93305	0.42727
4467.07547	0.42945
4463.21789	0.42776
4459.36031	0.42491
4455.50273	0.42352
4451.64516	0.42376
4447.78758	0.42407
4443.93000	0.42361
4440.07242	0.42265
4436.21484	0.42222
4432.35727	0.42393
4428.49969	0.42611
4424.64211	0.42593
4420.78453	0.42400
4416.92695	0.42325
4413.06937	0.42505
4409.21180	0.42489
4405.35422	0.42182
4401.49664	0.42188
4397.63906	0.42378
4393.78148	0.42399
4389.92391	0.42516
4386.06633	0.42658
4382.20875	0.42634
4378.35117	0.42647
4374.49359	0.42606
4370.63602	0.42427
4366.77844	0.42378
4362.92086	0.42445
4359.06328	0.42458
4355.20570	0.42489
4351.34812	0.42582
4347.49055	0.42573
4343.63297	0.42511
4339.77539	0.42451
4335.91781	0.42314
4332.06023	0.42411
4328.20266	0.42503
4324.34508	0.42256
4320.48750	0.42180
4316.62992	0.42367
4312.77234	0.42689
4308.91477	0.42845
4305.05719	0.42634
4301.19961	0.42572
4297.34203	0.42566
4293.48445	0.42569
4289.62687	0.42768
4285.76930	0.42761
4281.91172	0.42600
4278.05414	0.42553
4274.19656	0.42644
4270.33898	0.42691
4266.48141	0.42594
4262.62383	0.42691
4258.76625	0.42873
4254.90867	0.42807
4251.05109	0.42690
4247.19352	0.42783
4243.33594	0.42788
4239.47836	0.42512
4235.62078	0.42507
4231.76320	0.42725
4227.90562	0.42743
4224.04805	0.42783
4220.19047	0.42773
4216.33289	0.42712
4212.47531	0.42830
4208.61773	0.42827
4204.76016	0.42696
4200.90258	0.42684
4197.04500	0.42661
4193.18742	0.42624
4189.32984	0.42679
4185.47227	0.42789
4181.61469	0.42982
4177.75711	0.43151
4173.89953	0.43114
4170.04195	0.43061
4166.18437	0.43080
4162.32680	0.42952
4158.46922	0.42855
4154.61164	0.42989
4150.75406	0.43015
4146.89648	0.42860
4143.03891	0.42827
4139.18133	0.42781
4135.32375	0.42767
4131.46617	0.43050
4127.60859	0.43237
4123.75102	0.43106
4119.89344	0.42943
4116.03586	0.42844
4112.17828	0.42821
4108.32070	0.42887
4104.46312	0.42975
4100.60555	0.42985
4096.74797	0.42954
4092.89039	0.43021
4089.03281	0.43164
4085.17523	0.43214
4081.31766	0.43102
4077.46008	0.42953
4073.60250	0.42794
4069.74492	0.42737
4065.88734	0.42937
4062.02977	0.43130
4058.17219	0.43109
4054.31461	0.43059
4050.45703	0.43137
4046.59945	0.43208
4042.74187	0.43135
4038.88430	0.43073
4035.02672	0.43158
4031.16914	0.43230
4027.31156	0.43066
4023.45398	0.42936
4019.59641	0.43169
4015.73883	0.43372
4011.88125	0.43259
4008.02367	0.43128
4004.16609	0.43054
4000.30852	0.42942
3996.45094	0.43008
3992.59336	0.43165
3988.73578	0.43191
3984.87820	0.43275
3981.02062	0.43285
3977.16305	0.43207
3973.30547	0.43368
3969.44789	0.43437
3965.59031	0.43272
3961.73273	0.43220
3957.87516	0.43187
3954.01758	0.43141
3950.16000	0.43301
3946.30242	0.43442
3942.44484	0.43416
3938.58727	0.43412
3934.72969	0.43341
3930.87211	0.43369
3927.01453	0.43529
3923.15695	0.43433
3919.29937	0.43415
3915.44180	0.43480
3911.58422	0.43288
3907.72664	0.43208
3903.86906	0.43370
3900.01148	0.43427
3896.15391	0.43382
3892.29633	0.43483
3888.43875	0.43620
3884.58117	0.43515
3880.72359	0.43526
3876.86602	0.43506
3873.00844	0.43012
3869.15086	0.42850
3865.29328	0.43416
3861.43570	0.43663
3857.57812	0.43419
3853.72055	0.42950
3849.86297	0.43159
3846.00539	0.43431
3842.14781	0.43434
3838.29023	0.43227
3834.43266	0.43272
3830.57508	0.43525
3826.71750	0.43709
3822.85992	0.43737
3819.00234	0.43694
3815.14477	0.43647
3811.28719	0.43462
3807.42961	0.43208
3803.57203	0.43278
3799.71445	0.43573
3795.85687	0.43627
3791.99930	0.43603
3788.14172	0.43603
3784.28414	0.43628
3780.42656	0.43617
3776.56898	0.43568
3772.71141	0.43550
3768.85383	0.43610
3764.99625	0.43578
3761.13867	0.43449
3757.28109	0.43577
3753.42352	0.43721
3749.56594	0.43538
3745.70836	0.43627
3741.85078	0.43592
3737.99320	0.43205
3734.13562	0.42838
3730.27805	0.42816
3726.42047	0.43002
3722.56289	0.43397
3718.70531	0.43414
3714.84773	0.43151
3710.99016	0.43160
3707.13258	0.43362
3703.27500	0.43247
3699.41742	0.43113
3695.55984	0.43053
3691.70227	0.42928
3687.84469	0.43174
3683.98711	0.43354
3680.12953	0.43201
3676.27195	0.43127
3672.41437	0.43502
3668.55680	0.43765
3664.69922	0.43681
3660.84164	0.43523
3656.98406	0.43552
3653.12648	0.43588
3649.26891	0.43476
3645.41133	0.43459
3641.55375	0.43317
3637.69617	0.43157
3633.83859	0.43026
3629.98102	0.42803
3626.12344	0.42840
3622.26586	0.42943
3618.40828	0.43106
3614.55070	0.43313
3610.69312	0.43244
3606.83555	0.43070
3602.97797	0.42998
3599.12039	0.43023
3595.26281	0.43066
3591.40523	0.43068
3587.54766	0.43238
3583.69008	0.43420
3579.83250	0.43413
3575.97492	0.43401
3572.11734	0.43362
3568.25977	0.43228
3564.40219	0.43302
3560.54461	0.43509
3556.68703	0.43582
3552.82945	0.43511
3548.97187	0.43435
3545.11430	0.43477
3541.25672	0.43538
3537.39914	0.43594
3533.54156	0.43649
3529.68398	0.43574
3525.82641	0.43459
3521.96883	0.43498
3518.11125	0.43584
3514.25367	0.43673
3510.39609	0.43730
3506.53852	0.43669
3502.68094	0.43648
3498.82336	0.43694
3494.96578	0.43657
3491.10820	0.43618
3487.25062	0.43652
3483.39305	0.43676
3479.53547	0.43680
3475.67789	0.43692
3471.82031	0.43671
3467.96273	0.43697
3464.10516	0.43778
3460.24758	0.43774
3456.39000	0.43762
3452.53242	0.43731
3448.67484	0.43637
3444.81727	0.43679
3440.95969	0.43795
3437.10211	0.43806
3433.24453	0.43762
3429.38695	0.43700
3425.52937	0.43684
3421.67180	0.43768
3417.81422	0.43847
3413.95664	0.43870
3410.09906	0.43832
3406.24148	0.43745
3402.38391	0.43730
3398.52633	0.43769
3394.66875	0.43818
3390.81117	0.43904
3386.95359	0.43948
3383.09602	0.43957
3379.23844	0.43974
3375.38086	0.43969
3371.52328	0.43933
3367.66570	0.43886
3363.80812	0.43881
3359.95055	0.43949
3356.09297	0.44026
3352.23539	0.44003
3348.37781	0.43935
3344.52023	0.43961
3340.66266	0.44048
3336.80508	0.44087
3332.94750	0.44082
3329.08992	0.44058
3325.23234	0.43990
3321.37477	0.43940
3317.51719	0.43972
3313.65961	0.44006
3309.80203	0.44015
3305.94445	0.44037
3302.08687	0.44059
3298.22930	0.44064
3294.37172	0.44043
3290.51414	0.44006
3286.65656	0.44043
3282.79898	0.44120
3278.94141	0.44103
3275.08383	0.44104
3271.22625	0.44135
3267.36867	0.44083
3263.51109	0.44068
3259.65352	0.44124
3255.79594	0.44139
3251.93836	0.44116
3248.08078	0.44120
3244.22320	0.44138
3240.36562	0.44130
3236.50805	0.44126
3232.65047	0.44129
3228.79289	0.44127
3224.93531	0.44116
3221.07773	0.44112
3217.22016	0.44160
3213.36258	0.44183
3209.50500	0.44154
3205.64742	0.44148
3201.78984	0.44147
3197.93227	0.44146
3194.07469	0.44162
3190.21711	0.44184
3186.35953	0.44199
3182.50195	0.44178
3178.64437	0.44159
3174.78680	0.44154
3170.92922	0.44158
3167.07164	0.44190
3163.21406	0.44202
3159.35648	0.44213
3155.49891	0.44237
3151.64133	0.44248
3147.78375	0.44269
3143.92617	0.44245
3140.06859	0.44209
3136.21102	0.44246
3132.35344	0.44280
3128.49586	0.44307
3124.63828	0.44332
3120.78070	0.44305
3116.92312	0.44287
3113.06555	0.44321
3109.20797	0.44357
3105.35039	0.44309
3101.49281	0.44238
3097.63523	0.44287
3093.77766	0.44371
3089.92008	0.44382
3086.06250	0.44336
3082.20492	0.44266
3078.34734	0.44258
3074.48977	0.44293
3070.63219	0.44292
3066.77461	0.44283
3062.91703	0.44300
3059.05945	0.44323
3055.20187	0.44355
3051.34430	0.44416
3047.48672	0.44412
3043.62914	0.44346
3039.77156	0.44359
3035.91398	0.44411
3032.05641	0.44425
3028.19883	0.44415
3024.34125	0.44391
3020.48367	0.44369
3016.62609	0.44353
3012.76852	0.44321
3008.91094	0.44292
3005.05336	0.44343
3001.19578	0.44421
2997.33820	0.44417
2993.48062	0.44363
2989.62305	0.44309
2985.76547	0.44310
2981.90789	0.44362
2978.05031	0.44388
2974.19273	0.44397
2970.33516	0.44383
2966.47758	0.44319
2962.62000	0.44305
2958.76242	0.44333
2954.90484	0.44278
2951.04727	0.44239
2947.18969	0.44283
2943.33211	0.44312
2939.47453	0.44329
2935.61695	0.44314
2931.75937	0.44287
2927.90180	0.44301
2924.04422	0.44271
2920.18664	0.44213
2916.32906	0.44234
2912.47148	0.44339
2908.61391	0.44421
2904.75633	0.44417
2900.89875	0.44417
2897.04117	0.44424
2893.18359	0.44403
2889.32602	0.44435
2885.46844	0.44484
2881.61086	0.44479
2877.75328	0.44476
2873.89570	0.44467
2870.03812	0.44471
2866.18055	0.44520
2862.32297	0.44522
2858.46539	0.44492
2854.60781	0.44483
2850.75023	0.44479
2846.89266	0.44503
2843.03508	0.44548
2839.17750	0.44591
2835.31992	0.44621
2831.46234	0.44663
2827.60477	0.44721
2823.74719	0.44738
2819.88961	0.44727
2816.03203	0.44727
2812.17445	0.44715
2808.31687	0.44690
2804.45930	0.44654
2800.60172	0.44635
2796.74414	0.44668
2792.88656	0.44717
2789.02898	0.44748
2785.17141	0.44716
2781.31383	0.44681
2777.45625	0.44731
2773.59867	0.44753
2769.74109	0.44752
2765.88352	0.44799
2762.02594	0.44798
2758.16836	0.44758
2754.31078	0.44733
2750.45320	0.44726
2746.59562	0.44735
2742.73805	0.44752
2738.88047	0.44792
2735.02289	0.44784
2731.16531	0.44739
2727.30773	0.44756
2723.45016	0.44786
2719.59258	0.44790
2715.73500	0.44802
2711.87742	0.44814
2708.01984	0.44816
2704.16227	0.44814
2700.30469	0.44829
2696.44711	0.44844
2692.58953	0.44830
2688.73195	0.44807
2684.87437	0.44814
2681.01680	0.44840
2677.15922	0.44840
2673.30164	0.44843
2669.44406	0.44882
2665.58648	0.44896
2661.72891	0.44876
2657.87133	0.44879
2654.01375	0.44875
2650.15617	0.44860
2646.29859	0.44887
2642.44102	0.44910
2638.58344	0.44885
2634.72586	0.44857
2630.86828	0.44861
2627.01070	0.44884
2623.15312	0.44898
2619.29555	0.44922
2615.43797	0.44938
2611.58039	0.44902
2607.72281	0.44869
2603.86523	0.44881
2600.00766	0.44909
2596.15008	0.44913
2592.29250	0.44898
2588.43492	0.44904
2584.57734	0.44916
2580.71977	0.44904
2576.86219	0.44876
2573.00461	0.44859
2569.14703	0.44877
2565.28945	0.44922
2561.43187	0.44937
2557.57430	0.44919
2553.71672	0.44916
2549.85914	0.44914
2546.00156	0.44905
2542.14398	0.44899
2538.28641	0.44901
2534.42883	0.44918
2530.57125	0.44924
2526.71367	0.44924
2522.85609	0.44923
2518.99852	0.44918
2515.14094	0.44926
2511.28336	0.44929
2507.42578	0.44917
2503.56820	0.44934
2499.71062	0.44968
2495.85305	0.44962
2491.99547	0.44943
2488.13789	0.44942
2484.28031	0.44945
2480.42273	0.44943
2476.56516	0.44931
2472.70758	0.44954
2468.85000	0.45013
2464.99242	0.44998
2461.13484	0.44942
2457.27727	0.44937
2453.41969	0.44941
2449.56211	0.44954
2445.70453	0.44977
2441.84695	0.44973
2437.98937	0.44981
2434.13180	0.44981
2430.27422	0.44956
2426.41664	0.44970
2422.55906	0.45001
2418.70148	0.45006
2414.84391	0.44993
2410.98633	0.44985
2407.12875	0.44990
2403.27117	0.44984
2399.41359	0.44973
2395.55602	0.44971
2391.69844	0.44923
2387.84086	0.44666
2383.98328	0.44071
2380.12570	0.43160
2376.26812	0.41972
2372.41055	0.40617
2368.55297	0.39755
2364.69539	0.39798
2360.83781	0.40049
2356.98023	0.39633
2353.12266	0.39447
2349.26508	0.39501
2345.40750	0.39117
2341.54992	0.38603
2337.69234	0.38811
2333.83477	0.38972
2329.97719	0.39081
2326.11961	0.39441
2322.26203	0.40190
2318.40445	0.41007
2314.54687	0.41489
2310.68930	0.41874
2306.83172	0.42514
2302.97414	0.43074
2299.11656	0.43365
2295.25898	0.43688
2291.40141	0.44074
2287.54383	0.44398
2283.68625	0.44627
2279.82867	0.44669
2275.97109	0.44589
2272.11352	0.44582
2268.25594	0.44636
2264.39836	0.44679
2260.54078	0.44739
2256.68320	0.44804
2252.82562	0.44860
2248.96805	0.44918
2245.11047	0.44963
2241.25289	0.44994
2237.39531	0.45014
2233.53773	0.45028
2229.68016	0.45035
2225.82258	0.45032
2221.96500	0.45031
2218.10742	0.45034
2214.24984	0.45033
2210.39227	0.45039
2206.53469	0.45068
2202.67711	0.45087
2198.81953	0.45070
2194.96195	0.45052
2191.10437	0.45033
2187.24680	0.45029
2183.38922	0.45067
2179.53164	0.45098
2175.67406	0.45087
2171.81648	0.45062
2167.95891	0.45054
2164.10133	0.45058
2160.24375	0.45064
2156.38617	0.45065
2152.52859	0.45053
2148.67102	0.45057
2144.81344	0.45079
2140.95586	0.45085
2137.09828	0.45079
2133.24070	0.45076
2129.38312	0.45069
2125.52555	0.45060
2121.66797	0.45078
2117.81039	0.45110
2113.95281	0.45104
2110.09523	0.45083
2106.23766	0.45085
2102.38008	0.45102
2098.52250	0.45109
2094.66492	0.45094
2090.80734	0.45083
2086.94977	0.45077
2083.09219	0.45071
2079.23461	0.45083
2075.37703	0.45092
2071.51945	0.45074
2067.66187	0.45066
2063.80430	0.45088
2059.94672	0.45098
2056.08914	0.45104
2052.23156	0.45104
2048.37398	0.45099
2044.51641	0.45124
2040.65883	0.45124
2036.80125	0.45089
2032.94367	0.45076
2029.08609	0.45064
2025.22852	0.45066
2021.37094	0.45115
2017.51336	0.45146
2013.65578	0.45126
2009.79820	0.45116
2005.94062	0.45120
2002.08305	0.45130
1998.22547	0.45088
1994.36789	0.44995
1990.51031	0.45024
1986.65273	0.45134
1982.79516	0.45142
1978.93758	0.45120
1975.08000	0.45131
1971.22242	0.45100
1967.36484	0.45057
1963.50727	0.45073
1959.64969	0.45117
1955.79211	0.45151
1951.93453	0.45171
1948.07695	0.45228
1944.21937	0.45239
1940.36180	0.45138
1936.50422	0.45112
1932.64664	0.45162
1928.78906	0.45199
1924.93148	0.45198
1921.07391	0.45220
1917.21633	0.45269
1913.35875	0.45201
1909.50117	0.45119
1905.64359	0.45133
1901.78602	0.45171
1897.92844	0.45217
1894.07086	0.45276
1890.21328	0.45296
1886.35570	0.45229
1882.49812	0.45171
1878.64055	0.45187
1874.78297	0.45204
1870.92539	0.45151
1867.06781	0.45080
1863.21023	0.45121
1859.35266	0.45195
1855.49508	0.45202
1851.63750	0.45226
1847.77992	0.45393
1843.92234	0.45369
1840.06477	0.45158
1836.20719	0.45214
1832.34961	0.45206
1828.49203	0.45100
1824.63445	0.45265
1820.77687	0.45288
1816.91930	0.45211
1813.06172	0.45321
1809.20414	0.45363
1805.34656	0.45350
1801.48898	0.45485
1797.63141	0.45301
1793.77383	0.44918
1789.91625	0.45003
1786.05867	0.45101
1782.20109	0.45034
1778.34352	0.44984
1774.48594	0.44994
1770.62836	0.45232
1766.77078	0.45183
1762.91320	0.44926
1759.05562	0.45022
1755.19805	0.45279
1751.34047	0.45304
1747.48289	0.45328
1743.62531	0.45507
1739.76773	0.45378
1735.91016	0.44883
1732.05258	0.44830
1728.19500	0.45190
1724.33742	0.45304
1720.47984	0.45392
1716.62227	0.45397
1712.76469	0.45097
1708.90711	0.45257
1705.04953	0.45574
1701.19195	0.45235
1697.33437	0.45079
1693.47680	0.45242
1689.61922	0.45205
1685.76164	0.45185
1681.90406	0.45088
1678.04648	0.45129
1674.18891	0.44972
1670.33133	0.44509
1666.47375	0.44565
1662.61617	0.44910
1658.75859	0.45083
1654.90102	0.45022
1651.04344	0.44894
1647.18586	0.45062
1643.32828	0.45251
1639.47070	0.45146
1635.61312	0.44862
1631.75555	0.45120
1627.89797	0.45239
1624.04039	0.44988
1620.18281	0.45262
1616.32523	0.45578
1612.46766	0.45249
1608.61008	0.45039
1604.75250	0.45139
1600.89492	0.45264
1597.03734	0.45329
1593.17977	0.45344
1589.32219	0.45291
1585.46461	0.45267
1581.60703	0.45307
1577.74945	0.45084
1573.89187	0.44793
1570.03430	0.45105
1566.17672	0.45302
1562.31914	0.45344
1558.46156	0.45778
1554.60398	0.45348
1550.74641	0.45007
1546.88883	0.45046
1543.03125	0.44660
1539.17367	0.44438
1535.31609	0.44907
1531.45852	0.45037
1527.60094	0.44918
1523.74336	0.45034
1519.88578	0.45288
1516.02820	0.45222
1512.17062	0.45277
1508.31305	0.44974
1504.45547	0.44587
1500.59789	0.44891
1496.74031	0.45275
1492.88273	0.45482
1489.02516	0.45599
1485.16758	0.45344
1481.31000	0.44941
1477.45242	0.44815
1473.59484	0.44794
1469.73727	0.44656
1465.87969	0.44759
1462.02211	0.44867
1458.16453	0.44677
1454.30695	0.44330
1450.44937	0.44345
1446.59180	0.44489
1442.73422	0.44444
1438.87664	0.44581
1435.01906	0.44905
1431.16148	0.44723
1427.30391	0.44403
1423.44633	0.44460
1419.58875	0.44760
1415.73117	0.44743
1411.87359	0.44713
1408.01602	0.44926
1404.15844	0.44994
1400.30086	0.44724
1396.44328	0.44587
1392.58570	0.44734
1388.72812	0.44649
1384.87055	0.44539
1381.01297	0.44618
1377.15539	0.44709
1373.29781	0.44824
1369.44023	0.44865
1365.58266	0.44863
1361.72508	0.44803
1357.86750	0.44763
1354.00992	0.44814
1350.15234	0.44792
1346.29477	0.44815
1342.43719	0.44840
1338.57961	0.44680
1334.72203	0.44600
1330.86445	0.44634
1327.00687	0.44633
1323.14930	0.44548
1319.29172	0.44454
1315.43414	0.44492
1311.57656	0.44527
1307.71898	0.44481
1303.86141	0.44453
1300.00383	0.44439
1296.14625	0.44433
1292.28867	0.44436
1288.43109	0.44459
1284.57352	0.44514
1280.71594	0.44553
1276.85836	0.44572
1273.00078	0.44589
1269.14320	0.44616
1265.28562	0.44648
1261.42805	0.44662
1257.57047	0.44677
1253.71289	0.44704
1249.85531	0.44735
1245.99773	0.44749
1242.14016	0.44746
1238.28258	0.44770
1234.42500	0.44804
1230.56742	0.44812
1226.70984	0.44791
1222.85227	0.44761
1218.99469	0.44754
1215.13711	0.44755
1211.27953	0.44741
1207.42195	0.44715
1203.56437	0.44684
1199.70680	0.44638
1195.84922	0.44574
1191.99164	0.44524
1188.13406	0.44478
1184.27648	0.44415
1180.41891	0.44357
1176.56133	0.44313
1172.70375	0.44262
1168.84617	0.44208
1164.98859	0.44155
1161.13102	0.44097
1157.27344	0.44039
1153.41586	0.43976
1149.55828	0.43900
1145.70070	0.43794
1141.84312	0.43632
1137.98555	0.43393
1134.12797	0.43044
1130.27039	0.42576
1126.41281	0.41971
1122.55523	0.41273
1118.69766	0.40641
1114.84008	0.40159
1110.98250	0.39858
1107.12492	0.39798
1103.26734	0.39962
1099.40977	0.40327
1095.55219	0.40870
1091.69461	0.41501
1087.83703	0.42122
1083.97945	0.42659
1080.12187	0.43081
1076.26430	0.43398
1072.40672	0.43634
1068.54914	0.43830
1064.69156	0.43972
1060.83398	0.44055
1056.97641	0.44131
1053.11883	0.44204
1049.26125	0.44256
1045.40367	0.44299
1041.54609	0.44322
1037.68852	0.44310
1033.83094	0.44291
1029.97336	0.44281
1026.11578	0.44246
1022.25820	0.44169
1018.40062	0.44095
1014.54305	0.44055
1010.68547	0.44000
1006.82789	0.43924
1002.97031	0.43859
999.11273	0.43775
995.25516	0.43657
991.39758	0.43528
987.54000	0.43393
983.68242	0.43272
979.82484	0.43183
975.96727	0.43109
972.10969	0.43039
968.25211	0.42992
964.39453	0.42949
960.53695	0.42895
956.67937	0.42874
952.82180	0.42904
948.96422	0.42940
945.10664	0.42939
941.24906	0.42908
937.39148	0.42860
933.53391	0.42786
929.67633	0.42725
925.81875	0.42658
921.96117	0.42548
918.10359	0.42455
914.24602	0.42335
910.38844	0.42168
906.53086	0.42044
902.67328	0.41952
898.81570	0.41892
894.95812	0.41879
891.10055	0.41864
887.24297	0.41872
883.38539	0.41905
879.52781	0.41882
875.67023	0.41852
871.81266	0.41906
867.95508	0.41995
864.09750	0.42099
860.23992	0.42283
856.38234	0.42499
852.52477	0.42628
848.66719	0.42675
844.80961	0.42734
840.95203	0.42817
837.09445	0.42875
833.23687	0.42795
829.37930	0.42536
825.52172	0.42286
821.66414	0.42169
817.80656	0.42135
813.94898	0.42167
810.09141	0.42272
806.23383	0.42460
802.37625	0.42628
798.51867	0.42617
794.66109	0.42460
790.80352	0.42282
786.94594	0.42201
783.08836	0.42209
779.23078	0.42207
775.37320	0.42158
771.51562	0.42057
767.65805	0.42009
763.80047	0.41980
759.94289	0.41848
756.08531	0.41727
752.22773	0.41657
748.37016	0.41538
744.51258	0.41317
740.65500	0.41107
736.79742	0.41091
732.93984	0.41259
729.08227	0.41515
725.22469	0.41776
721.36711	0.42059
717.50953	0.42448
713.65195	0.42912
709.79437	0.43300
705.93680	0.43491
702.07922	0.43483
698.22164	0.43247
694.36406	0.43015
690.50648	0.42870
686.64891	0.42593
682.79133	0.42382
678.93375	0.42375
675.07617	0.42441
671.21859	0.42051
667.36102	0.41474
663.50344	0.41943
659.64586	0.42427
655.78828	0.42508
651.93070	0.42425
648.07312	0.42246
644.21555	0.42299
640.35797	0.42530
636.50039	0.42655
632.64281	0.42119
628.78523	0.40252
624.92766	0.37902
621.07008	0.36531
617.21250	0.36117
613.35492	0.35933
609.49734	0.35992
605.63977	0.36436
601.78219	0.37274
597.92461	0.38455
594.06703	0.39397
590.20945	0.40212
586.35187	0.40978
582.49430	0.41307
578.63672	0.41609
574.77914	0.41641
570.92156	0.41226
567.06398	0.41093
563.20641	0.41177
559.34883	0.41229
555.49125	0.41415
551.63367	0.41742
547.77609	0.41884
543.91852	0.41853
540.06094	0.41994
536.20336	0.42153
532.34578	0.42031
528.48820	0.41645
524.63062	0.41859
520.77305	0.42662
516.91547	0.42692
513.05789	0.42069
509.20031	0.41728
505.34273	0.42267
501.48516	0.43208
497.62758	0.43087
493.77000	0.42830
489.91242	0.42860
486.05484	0.42246
482.19727	0.42346
478.33969	0.42909
474.48211	0.42543
470.62453	0.43077
466.76695	0.43703
462.90937	0.43176
459.05180	0.43621
455.19422	0.43877
451.33664	0.43290
447.47906	0.43663
443.62148	0.43714
439.76391	0.43488
435.90633	0.43648
432.04875	0.43738
428.19117	0.44459
424.33359	0.45052
420.47602	0.44601
416.61844	0.44475
412.76086	0.45127
408.90328	0.44998
405.04570	0.43452
401.18812	0.41241
397.33055	0.40308
393.47297	0.43748
389.61539	0.44977
385.75781	0.43245
381.90023	0.43778
378.04266	0.46233
374.18508	0.48755
370.32750	0.48276
366.46992	0.45167
362.61234	0.45520
358.75477	0.47322
354.89719	0.47573
351.03961	0.45575
347.18203	0.41322
343.32445	0.41535
339.46687	0.48513
335.60930	0.61512
331.75172	0.64311
327.89414	0.66681
324.03656	0.81413
320.17898	0.32097
316.32141	-0.03200
312.46383	-0.04843
308.60625	-0.81637
304.74867	-0.85379
300.89109	-0.31138
