14998.26375	-1.45089
14994.40617	-2.37766
14990.54859	-0.64550
14986.69102	0.41478
14982.83344	0.41478
14978.97586	0.41478
14975.11828	0.41478
14971.26070	1.30171
14967.40312	1.30171
14963.54555	1.30171
14959.68797	1.30171
14955.83039	-0.37192
14951.97281	0.24524
14948.11523	0.35388
14944.25766	0.84811
14940.40008	3.14856
14936.54250	3.14856
14932.68492	3.14856
14928.82734	0.42239
14924.96977	0.16567
14921.11219	0.79571
14917.25461	3.22325
14913.39703	0.59743
14909.53945	0.21070
14905.68187	0.21070
14901.82430	-0.15782
14897.96672	0.01056
14894.10914	1.44613
14890.25156	1.44613
14886.39398	1.19834
14882.53641	0.78551
14878.67883	0.27725
14874.82125	-0.20221
14870.96367	-0.01865
14867.10609	-0.01480
14863.24852	0.54019
14859.39094	0.51219
14855.53336	-0.15701
14851.67578	-0.15701
14847.81820	-1.34166
14843.96062	-0.49101
14840.10305	0.37331
14836.24547	-0.21824
14832.38789	-0.18491
14828.53031	-0.18491
14824.67273	-0.18491
14820.81516	-2.30195
14816.95758	-2.30195
14813.10000	-2.30195
14809.24242	4.05638
14805.38484	4.05638
14801.52727	4.05638
14797.66969	4.05638
14793.81211	4.05638
14789.95453	4.05638
14786.09695	4.05638
14782.23937	4.05638
14778.38180	4.05638
14774.52422	4.05638
14770.66664	4.05638
14766.80906	4.05638
14762.95148	4.05638
14759.09391	4.05638
14755.23633	2.38329
14751.37875	0.85542
14747.52117	0.16884
14743.66359	0.59330
14739.80602	-0.02356
14735.94844	-0.02422
14732.09086	-0.11399
14728.23328	0.08603
14724.37570	0.91636
14720.51812	0.91636
14716.66055	0.91636
14712.80297	1.81702
14708.94539	0.35248
14705.08781	-0.02085
14701.23023	1.00321
14697.37266	1.18670
14693.51508	1.14039
14689.65750	1.14039
14685.79992	1.14039
14681.94234	1.14039
14678.08477	1.11512
14674.22719	0.61807
14670.36961	0.54867
14666.51203	0.76436
14662.65445	0.76436
14658.79687	0.76436
14654.93930	0.76436
14651.08172	1.36302
14647.22414	0.84797
14643.36656	0.28616
14639.50898	0.49750
14635.65141	0.16061
14631.79383	-0.59872
14627.93625	-0.26648
14624.07867	-0.26648
14620.22109	1.77013
14616.36352	0.78276
14612.50594	0.76536
14608.64836	3.70174
14604.79078	3.70174
14600.93320	3.70174
14597.07562	1.30994
14593.21805	0.84547
14589.36047	0.64738
14585.50289	-0.01178
14581.64531	-0.39649
14577.78773	0.56648
14573.93016	0.92354
14570.07258	0.75753
14566.21500	0.32551
14562.35742	0.87227
14558.49984	1.31988
14554.64227	0.52011
14550.78469	-0.43379
14546.92711	-0.43379
14543.06953	-0.43379
14539.21195	-0.43379
14535.35437	-0.43379
14531.49680	1.08463
14527.63922	0.45370
14523.78164	0.45370
14519.92406	-0.96169
14516.06648	1.06975
14512.20891	1.36821
14508.35133	0.47560
14504.49375	0.69176
14500.63617	1.01193
14496.77859	-0.12727
14492.92102	-1.68968
14489.06344	-3.90226
14485.20586	-1.44165
14481.34828	-0.77727
14477.49070	-0.77727
14473.63312	-0.77727
14469.77555	-1.21234
14465.91797	-0.17466
14462.06039	-0.17466
14458.20281	-0.17466
14454.34523	-0.17466
14450.48766	-0.17466
14446.63008	-0.17466
14442.77250	0.62639
14438.91492	0.62639
14435.05734	0.62639
14431.19977	-1.18085
14427.34219	-1.18085
14423.48461	-1.18085
14419.62703	-1.18085
14415.76945	1.05742
14411.91187	0.31798
14408.05430	0.31078
14404.19672	0.31078
14400.33914	0.31078
14396.48156	0.31078
14392.62398	0.31078
14388.76641	-0.74581
14384.90883	-1.48579
14381.05125	-1.48579
14377.19367	1.81205
14373.33609	0.96291
14369.47852	0.96264
14365.62094	0.86163
14361.76336	0.47229
14357.90578	1.02580
14354.04820	0.84837
14350.19062	0.14132
14346.33305	-0.34991
14342.47547	-1.65800
14338.61789	-1.65800
14334.76031	-1.65800
14330.90273	-0.74344
14327.04516	0.77624
14323.18758	0.99049
14319.33000	1.02049
14315.47242	1.75748
14311.61484	1.75748
14307.75727	1.75748
14303.89969	1.41178
14300.04211	-0.15358
14296.18453	0.24051
14292.32695	0.24051
14288.46937	0.24051
14284.61180	0.68616
14280.75422	1.79239
14276.89664	1.79239
14273.03906	1.79239
14269.18148	1.79239
14265.32391	1.79239
14261.46633	1.79239
14257.60875	1.79239
14253.75117	1.12460
14249.89359	1.74688
14246.03602	1.09691
14242.17844	1.09691
14238.32086	1.09691
14234.46328	1.09691
14230.60570	1.09691
14226.74812	0.42305
14222.89055	0.42305
14219.03297	0.42305
14215.17539	1.00282
14211.31781	2.57755
14207.46023	7.34413
14203.60266	7.34413
14199.74508	-0.46013
14195.88750	-0.28956
14192.02992	-0.28956
14188.17234	-0.28956
14184.31477	-0.28956
14180.45719	-0.28956
14176.59961	-0.68613
14172.74203	1.78876
14168.88445	1.78876
14165.02687	1.78876
14161.16930	3.28330
14157.31172	3.37030
14153.45414	3.37030
14149.59656	-1.27210
14145.73898	-0.30630
14141.88141	0.23487
14138.02383	0.82826
14134.16625	0.77663
14130.30867	0.77663
14126.45109	0.77663
14122.59352	0.77663
14118.73594	0.77663
14114.87836	0.77663
14111.02078	0.77663
14107.16320	0.43498
14103.30562	-1.11659
14099.44805	-1.11659
14095.59047	-1.11659
14091.73289	1.61925
14087.87531	-0.36037
14084.01773	-0.36037
14080.16016	-1.46375
14076.30258	1.97820
14072.44500	0.28222
14068.58742	0.28222
14064.72984	0.28222
14060.87227	1.29637
14057.01469	3.07569
14053.15711	3.07569
14049.29953	-0.48736
14045.44195	-0.20692
14041.58437	-0.20692
14037.72680	-0.20692
14033.86922	-0.20692
14030.01164	-0.20692
14026.15406	3.37352
14022.29648	3.25947
14018.43891	2.14350
14014.58133	0.28259
14010.72375	0.05605
14006.86617	0.21603
14003.00859	0.88752
13999.15102	1.05559
13995.29344	1.97555
13991.43586	1.97555
13987.57828	1.97555
13983.72070	1.97555
13979.86312	0.11582
13976.00555	0.97259
13972.14797	3.66686
13968.29039	3.66686
13964.43281	3.66686
13960.57523	3.66686
13956.71766	3.66686
13952.86008	3.66686
13949.00250	3.66686
13945.14492	-0.70812
13941.28734	-0.12801
13937.42977	0.69838
13933.57219	0.69838
13929.71461	0.69838
13925.85703	0.69838
13921.99945	0.69838
13918.14187	0.69838
13914.28430	0.69838
13910.42672	0.69838
13906.56914	-0.58265
13902.71156	-0.00937
13898.85398	-0.21842
13894.99641	-0.55602
13891.13883	-0.50162
13887.28125	-0.34764
13883.42367	-0.65893
13879.56609	-0.65893
13875.70852	-0.65893
13871.85094	-1.54859
13867.99336	-1.11201
13864.13578	-1.27488
13860.27820	-2.33336
13856.42062	-2.33336
13852.56305	-2.33336
13848.70547	-2.33336
13844.84789	-2.33336
13840.99031	-1.48472
13837.13273	-0.03531
13833.27516	0.64560
13829.41758	0.68264
13825.56000	0.68264
13821.70242	0.92188
13817.84484	0.51021
13813.98727	0.68887
13810.12969	2.01933
13806.27211	5.39177
13802.41453	5.39177
13798.55695	5.39177
13794.69937	5.39177
13790.84180	5.39177
13786.98422	0.94982
13783.12664	1.13286
13779.26906	1.13286
13775.41148	1.13286
13771.55391	1.40794
13767.69633	0.30188
13763.83875	0.64502
13759.98117	0.60387
13756.12359	0.44110
13752.26602	1.35735
13748.40844	1.35735
13744.55086	1.35735
13740.69328	0.45562
13736.83570	1.01078
13732.97812	0.83080
13729.12055	0.28768
13725.26297	0.04605
13721.40539	0.27010
13717.54781	0.50549
13713.69023	0.55737
13709.83266	0.62584
13705.97508	0.62584
13702.11750	0.62584
13698.25992	0.62584
13694.40234	-1.39056
13690.54477	0.68720
13686.68719	0.01061
13682.82961	0.01061
13678.97203	0.01061
13675.11445	-0.51592
13671.25687	0.36081
13667.39930	0.79018
13663.54172	2.47434
13659.68414	2.47434
13655.82656	2.32432
13651.96898	2.32432
13648.11141	1.89289
13644.25383	0.44432
13640.39625	0.60864
13636.53867	0.74364
13632.68109	0.00787
13628.82352	-0.65471
13624.96594	-0.85345
13621.10836	-0.94725
13617.25078	-0.65004
13613.39320	0.41785
13609.53562	1.36517
13605.67805	4.00008
13601.82047	4.00008
13597.96289	4.00008
13594.10531	4.00008
13590.24773	4.00008
13586.39016	4.00008
13582.53258	4.00008
13578.67500	-0.14000
13574.81742	0.31271
13570.95984	1.47407
13567.10227	-0.47315
13563.24469	-1.33336
13559.38711	0.93242
13555.52953	0.93242
13551.67195	0.93242
13547.81437	0.46901
13543.95680	0.27040
13540.09922	0.58660
13536.24164	0.06180
13532.38406	-0.92879
13528.52648	-0.80159
13524.66891	0.14595
13520.81133	0.16294
13516.95375	1.03050
13513.09617	2.36052
13509.23859	1.55787
13505.38102	1.46204
13501.52344	1.46204
13497.66586	1.46204
13493.80828	1.46204
13489.95070	0.97585
13486.09312	0.59768
13482.23555	0.02077
13478.37797	0.04365
13474.52039	0.48118
13470.66281	2.08013
13466.80523	0.62217
13462.94766	0.13644
13459.09008	0.13644
13455.23250	0.13644
13451.37492	3.19495
13447.51734	3.19495
13443.65977	0.07930
13439.80219	0.07930
13435.94461	0.07930
13432.08703	0.94885
13428.22945	0.14682
13424.37187	-0.61193
13420.51430	-0.61193
13416.65672	0.15670
13412.79914	0.07870
13408.94156	0.62976
13405.08398	0.09105
13401.22641	-2.40665
13397.36883	-2.40665
13393.51125	-2.40665
13389.65367	0.95403
13385.79609	0.78465
13381.93852	0.24257
13378.08094	-0.16716
13374.22336	0.38913
13370.36578	0.77058
13366.50820	0.73204
13362.65062	0.73879
13358.79305	1.23979
13354.93547	1.79086
13351.07789	1.68014
13347.22031	0.98210
13343.36273	2.13115
13339.50516	2.13115
13335.64758	2.13115
13331.79000	-0.09977
13327.93242	-0.13356
13324.07484	0.16433
13320.21727	0.16433
13316.35969	0.16433
13312.50211	0.04422
13308.64453	-0.05792
13304.78695	0.71503
13300.92937	0.32798
13297.07180	-0.14749
13293.21422	-0.16883
13289.35664	0.56754
13285.49906	0.56754
13281.64148	0.56754
13277.78391	3.88975
13273.92633	1.19652
13270.06875	0.00895
13266.21117	0.35737
13262.35359	0.52072
13258.49602	0.17877
13254.63844	0.38622
13250.78086	0.60081
13246.92328	-0.68311
13243.06570	-0.47642
13239.20812	0.26357
13235.35055	1.79379
13231.49297	1.79379
13227.63539	1.79379
13223.77781	0.73238
13219.92023	-0.20797
13216.06266	-0.20797
13212.20508	-0.20797
13208.34750	-0.20797
13204.48992	-0.20797
13200.63234	-0.20797
13196.77477	-1.05357
13192.91719	0.66278
13189.05961	1.14495
13185.20203	1.04476
13181.34445	1.23225
13177.48687	1.23225
13173.62930	1.23225
13169.77172	1.23225
13165.91414	1.23225
13162.05656	1.23225
13158.19898	1.23225
13154.34141	1.23225
13150.48383	1.23225
13146.62625	1.23225
13142.76867	1.23225
13138.91109	1.23225
13135.05352	1.23225
13131.19594	1.23225
13127.33836	1.23225
13123.48078	1.78813
13119.62320	0.58819
13115.76562	-0.30545
13111.90805	-0.16477
13108.05047	0.81717
13104.19289	1.29323
13100.33531	2.46177
13096.47773	2.46177
13092.62016	0.39130
13088.76258	0.39130
13084.90500	0.39130
13081.04742	2.83646
13077.18984	1.61774
13073.33227	1.39815
13069.47469	6.56286
13065.61711	6.56286
13061.75953	6.56286
13057.90195	6.56286
13054.04437	0.35016
13050.18680	1.73628
13046.32922	1.73628
13042.47164	1.73628
13038.61406	1.73628
13034.75648	1.73628
13030.89891	0.01893
13027.04133	0.19923
13023.18375	0.08423
13019.32617	0.08423
13015.46859	0.08423
13011.61102	1.58435
13007.75344	1.30358
13003.89586	1.30358
13000.03828	1.30358
12996.18070	-0.10334
12992.32312	0.13178
12988.46555	0.13178
12984.60797	0.13178
12980.75039	2.09771
12976.89281	-0.16613
12973.03523	-0.21646
12969.17766	-0.21646
12965.32008	-0.21646
12961.46250	-0.21646
12957.60492	-0.21646
12953.74734	-0.21646
12949.88977	0.36605
12946.03219	-0.11460
12942.17461	-0.11460
12938.31703	0.06924
12934.45945	1.00943
12930.60187	1.07176
12926.74430	1.18979
12922.88672	-2.40288
12919.02914	-0.38647
12915.17156	0.39022
12911.31398	1.26730
12907.45641	1.26730
12903.59883	1.26730
12899.74125	1.36239
12895.88367	2.41916
12892.02609	-0.41558
12888.16852	-0.41558
12884.31094	-0.41558
12880.45336	-0.41558
12876.59578	-0.41558
12872.73820	-1.41082
12868.88062	-0.43130
12865.02305	-0.53632
12861.16547	-0.53632
12857.30789	0.85740
12853.45031	0.06067
12849.59273	-0.01396
12845.73516	0.17547
12841.87758	0.21156
12838.02000	0.25114
12834.16242	0.34447
12830.30484	0.15086
12826.44727	0.15086
12822.58969	0.15086
12818.73211	0.15086
12814.87453	0.15086
12811.01695	-0.13181
12807.15937	0.04540
12803.30180	-0.13307
12799.44422	0.89277
12795.58664	0.89277
12791.72906	0.89277
12787.87148	0.89277
12784.01391	0.89277
12780.15633	0.38913
12776.29875	-0.08465
12772.44117	1.62161
12768.58359	2.24734
12764.72602	0.11613
12760.86844	0.37892
12757.01086	1.81696
12753.15328	1.81696
12749.29570	1.81696
12745.43812	1.81696
12741.58055	1.81696
12737.72297	-0.08185
12733.86539	-0.11948
12730.00781	-0.19776
12726.15023	-0.85846
12722.29266	-0.85846
12718.43508	-0.85846
12714.57750	-0.85846
12710.71992	-0.85846
12706.86234	-0.85846
12703.00477	-0.85846
12699.14719	-0.23887
12695.28961	-0.23887
12691.43203	2.15676
12687.57445	1.13115
12683.71687	1.13115
12679.85930	1.13115
12676.00172	1.13115
12672.14414	1.13115
12668.28656	1.13115
12664.42898	1.13115
12660.57141	1.13115
12656.71383	1.13115
12652.85625	-2.52203
12648.99867	-0.49275
12645.14109	-0.42066
12641.28352	-0.49740
12637.42594	-1.04480
12633.56836	-1.04480
12629.71078	-0.74229
12625.85320	-0.74229
12621.99562	-0.74229
12618.13805	-0.74229
12614.28047	-0.74229
12610.42289	2.74402
12606.56531	3.30635
12602.70773	2.47536
12598.85016	-0.48085
12594.99258	-0.48085
12591.13500	-0.48085
12587.27742	-0.20999
12583.41984	0.18593
12579.56227	1.32228
12575.70469	-0.07604
12571.84711	-0.74451
12567.98953	-0.48341
12564.13195	0.65423
12560.27437	0.61070
12556.41680	0.55841
12552.55922	0.75989
12548.70164	-0.28275
12544.84406	-0.28275
12540.98648	-0.28275
12537.12891	-0.28275
12533.27133	4.07189
12529.41375	1.18272
12525.55617	1.18272
12521.69859	1.18272
12517.84102	-1.06482
12513.98344	-0.68245
12510.12586	-0.68245
12506.26828	-0.68245
12502.41070	-0.06302
12498.55312	-0.11866
12494.69555	0.43811
12490.83797	1.40428
12486.98039	2.91798
12483.12281	2.25222
12479.26523	0.02314
12475.40766	-0.61592
12471.55008	-0.61592
12467.69250	-0.61592
12463.83492	-0.61592
12459.97734	-0.61592
12456.11977	-0.61592
12452.26219	-0.61592
12448.40461	-0.61592
12444.54703	-0.61592
12440.68945	-0.61592
12436.83187	-0.61592
12432.97430	-0.61592
12429.11672	-0.61592
12425.25914	-0.61592
12421.40156	-0.91040
12417.54398	-1.16021
12413.68641	-1.16021
12409.82883	1.23569
12405.97125	1.22775
12402.11367	1.22775
12398.25609	1.22775
12394.39852	1.32125
12390.54094	1.05513
12386.68336	0.55692
12382.82578	0.55692
12378.96820	0.55692
12375.11062	0.55692
12371.25305	0.55692
12367.39547	0.65946
12363.53789	0.24600
12359.68031	0.24600
12355.82273	0.24600
12351.96516	0.24600
12348.10758	1.65391
12344.25000	0.59258
12340.39242	-0.43979
12336.53484	0.39344
12332.67727	-0.28647
12328.81969	-0.73500
12324.96211	1.18404
12321.10453	1.18404
12317.24695	1.18404
12313.38937	1.18404
12309.53180	1.06887
12305.67422	0.02712
12301.81664	0.02712
12297.95906	-0.07544
12294.10148	0.25761
12290.24391	0.25761
12286.38633	0.25761
12282.52875	2.71015
12278.67117	-0.13206
12274.81359	-1.10865
12270.95602	-1.10865
12267.09844	-1.10865
12263.24086	-1.10865
12259.38328	1.91363
12255.52570	1.62384
12251.66812	1.62384
12247.81055	1.32153
12243.95297	0.60315
12240.09539	0.24199
12236.23781	-0.53261
12232.38023	-0.70395
12228.52266	-0.65443
12224.66508	-0.46168
12220.80750	-0.35881
12216.94992	-1.04554
12213.09234	-1.14140
12209.23477	-0.11498
12205.37719	-0.28755
12201.51961	-0.28755
12197.66203	-0.28755
12193.80445	0.09777
12189.94687	-0.30787
12186.08930	0.06505
12182.23172	-0.02803
12178.37414	0.17450
12174.51656	0.17450
12170.65898	0.52599
12166.80141	0.19123
12162.94383	0.55847
12159.08625	0.23953
12155.22867	0.23953
12151.37109	-2.77448
12147.51352	0.01582
12143.65594	0.01582
12139.79836	0.01582
12135.94078	0.01582
12132.08320	0.01582
12128.22562	-1.08466
12124.36805	-0.46365
12120.51047	-0.74339
12116.65289	-2.49757
12112.79531	-1.62648
12108.93773	-0.49396
12105.08016	0.60120
12101.22258	-1.05215
12097.36500	-4.61909
12093.50742	-3.20078
12089.64984	-0.74108
12085.79227	0.13201
12081.93469	0.51296
12078.07711	0.28892
12074.21953	-1.56495
12070.36195	-1.56495
12066.50437	-1.56495
12062.64680	-1.06277
12058.78922	0.64513
12054.93164	0.64513
12051.07406	0.64513
12047.21648	0.65621
12043.35891	0.34129
12039.50133	0.34129
12035.64375	-0.92480
12031.78617	-0.24687
12027.92859	-0.24687
12024.07102	-0.24687
12020.21344	-0.24687
12016.35586	-0.24687
12012.49828	1.76651
12008.64070	2.59083
12004.78312	2.24110
12000.92555	1.03376
11997.06797	1.03376
11993.21039	1.03376
11989.35281	0.39012
11985.49523	0.25847
11981.63766	0.31817
11977.78008	-0.52188
11973.92250	-0.83606
11970.06492	-1.37900
11966.20734	-1.37900
11962.34977	0.89221
11958.49219	0.89221
11954.63461	0.89221
11950.77703	0.91619
11946.91945	0.91619
11943.06187	0.91619
11939.20430	0.73479
11935.34672	-0.61496
11931.48914	-0.95637
11927.63156	1.13652
11923.77398	1.16512
11919.91641	1.16657
11916.05883	0.36756
11912.20125	-1.18724
11908.34367	-1.18724
11904.48609	-0.57457
11900.62852	-0.29950
11896.77094	-0.90098
11892.91336	-0.90098
11889.05578	1.23891
11885.19820	1.23891
11881.34062	1.08872
11877.48305	-0.56449
11873.62547	-0.56449
11869.76789	-0.56449
11865.91031	-0.56449
11862.05273	-0.56449
11858.19516	-0.56449
11854.33758	-0.56449
11850.48000	-0.56449
11846.62242	0.84253
11842.76484	0.84253
11838.90727	0.84253
11835.04969	-0.20773
11831.19211	0.10822
11827.33453	0.92600
11823.47695	1.44311
11819.61937	-1.64542
11815.76180	-2.38580
11811.90422	-2.38580
11808.04664	-2.38580
11804.18906	-2.38580
11800.33148	-2.38580
11796.47391	-2.38580
11792.61633	-2.38580
11788.75875	-2.38580
11784.90117	-2.38580
11781.04359	-2.38580
11777.18602	-2.38580
11773.32844	-2.38580
11769.47086	-2.52162
11765.61328	-0.85889
11761.75570	-0.51959
11757.89812	-0.51959
11754.04055	-0.51959
11750.18297	-0.51959
11746.32539	-0.51959
11742.46781	-0.51959
11738.61023	0.79701
11734.75266	-0.18360
11730.89508	0.48192
11727.03750	0.48192
11723.17992	0.48192
11719.32234	0.48192
11715.46477	0.99155
11711.60719	0.43556
11707.74961	0.43556
11703.89203	0.43556
11700.03445	1.01367
11696.17687	1.01367
11692.31930	1.01367
11688.46172	1.01367
11684.60414	-0.73531
11680.74656	-1.20299
11676.88898	-1.20299
11673.03141	-1.20299
11669.17383	0.46792
11665.31625	0.60050
11661.45867	1.09164
11657.60109	6.35323
11653.74352	6.35323
11649.88594	0.58005
11646.02836	1.47296
11642.17078	2.12543
11638.31320	1.27939
11634.45562	0.88333
11630.59805	0.24535
11626.74047	-0.43404
11622.88289	0.08928
11619.02531	0.89498
11615.16773	0.56403
11611.31016	-1.32332
11607.45258	-1.32332
11603.59500	-1.32332
11599.73742	-1.32332
11595.87984	-1.32332
11592.02227	-1.32332
11588.16469	-1.32332
11584.30711	-0.48033
11580.44953	-1.34897
11576.59195	-1.34897
11572.73437	-1.34897
11568.87680	-1.34897
11565.01922	-1.34897
11561.16164	-0.04424
11557.30406	-0.15401
11553.44648	-0.15401
11549.58891	-0.15401
11545.73133	-0.15401
11541.87375	-1.28703
11538.01617	0.57840
11534.15859	0.57840
11530.30102	-0.88025
11526.44344	1.16099
11522.58586	1.16099
11518.72828	1.16099
11514.87070	1.03886
11511.01312	0.96335
11507.15555	0.45064
11503.29797	0.67291
11499.44039	1.50450
11495.58281	1.50450
11491.72523	1.50450
11487.86766	1.50450
11484.01008	1.75937
11480.15250	0.64479
11476.29492	0.64479
11472.43734	0.64479
11468.57977	0.64479
11464.72219	0.64479
11460.86461	0.64479
11457.00703	0.64479
11453.14945	3.07613
11449.29187	-0.31794
11445.43430	-2.80653
11441.57672	-2.80653
11437.71914	0.15435
11433.86156	-1.74353
11430.00398	-1.74353
11426.14641	-1.74353
11422.28883	-1.74353
11418.43125	-1.74353
11414.57367	-1.74353
11410.71609	-1.74353
11406.85852	-1.74353
11403.00094	-1.74353
11399.14336	-1.74353
11395.28578	-0.96410
11391.42820	0.19180
11387.57062	0.19180
11383.71305	0.19180
11379.85547	0.19180
11375.99789	0.19180
11372.14031	0.19180
11368.28273	0.19180
11364.42516	0.19180
11360.56758	-0.30670
11356.71000	-0.30670
11352.85242	1.80499
11348.99484	-0.18787
11345.13727	-0.20935
11341.27969	0.90805
11337.42211	1.01977
11333.56453	0.43234
11329.70695	0.04181
11325.84937	0.58939
11321.99180	1.51626
11318.13422	0.37467
11314.27664	-0.21191
11310.41906	0.17055
11306.56148	0.20059
11302.70391	0.56042
11298.84633	1.31595
11294.98875	1.31595
11291.13117	1.31595
11287.27359	1.31595
11283.41602	-0.46208
11279.55844	-1.06017
11275.70086	-1.06017
11271.84328	-1.06017
11267.98570	3.66024
11264.12812	2.17329
11260.27055	1.06249
11256.41297	0.37283
11252.55539	0.37283
11248.69781	0.37283
11244.84023	0.37283
11240.98266	2.03203
11237.12508	0.29208
11233.26750	-0.15190
11229.40992	-0.15190
11225.55234	-0.15190
11221.69477	-0.50486
11217.83719	0.61791
11213.97961	0.11663
11210.12203	-0.55428
11206.26445	0.25373
11202.40687	0.25373
11198.54930	0.25373
11194.69172	0.25373
11190.83414	0.25373
11186.97656	0.25373
11183.11898	0.34850
11179.26141	-0.01334
11175.40383	0.10698
11171.54625	0.46999
11167.68867	-0.36992
11163.83109	-0.90779
11159.97352	-0.98779
11156.11594	0.35077
11152.25836	0.66826
11148.40078	1.66535
11144.54320	1.66535
11140.68562	1.66535
11136.82805	1.66535
11132.97047	1.66535
11129.11289	2.72401
11125.25531	2.26678
11121.39773	2.26678
11117.54016	2.26678
11113.68258	2.26678
11109.82500	2.26678
11105.96742	2.26678
11102.10984	2.26678
11098.25227	-0.02224
11094.39469	-0.55792
11090.53711	-0.55792
11086.67953	-0.55792
11082.82195	-0.55792
11078.96437	0.42426
11075.10680	0.44988
11071.24922	1.27945
11067.39164	1.27945
11063.53406	1.27945
11059.67648	1.27945
11055.81891	1.27945
11051.96133	1.27945
11048.10375	1.27945
11044.24617	1.27945
11040.38859	1.27945
11036.53102	1.27945
11032.67344	1.27945
11028.81586	1.27945
11024.95828	1.27945
11021.10070	2.22482
11017.24312	2.22482
11013.38555	2.22482
11009.52797	2.22482
11005.67039	2.22482
11001.81281	2.22482
10997.95523	2.22482
10994.09766	2.22482
10990.24008	2.22482
10986.38250	0.21662
10982.52492	1.39010
10978.66734	1.39010
10974.80977	1.39010
10970.95219	1.39010
10967.09461	1.39010
10963.23703	1.39010
10959.37945	1.39010
10955.52187	0.62432
10951.66430	2.03755
10947.80672	2.03755
10943.94914	2.03755
10940.09156	2.03755
10936.23398	2.03755
10932.37641	2.03755
10928.51883	-0.72504
10924.66125	-0.16468
10920.80367	-0.16468
10916.94609	-0.16468
10913.08852	0.02733
10909.23094	0.78217
10905.37336	0.78217
10901.51578	0.78217
10897.65820	2.06209
10893.80062	2.06209
10889.94305	2.06209
10886.08547	0.18548
10882.22789	0.36744
10878.37031	2.56814
10874.51273	0.13780
10870.65516	-0.49708
10866.79758	-0.49708
10862.94000	-0.48694
10859.08242	0.72127
10855.22484	0.72127
10851.36727	0.72127
10847.50969	1.11062
10843.65211	0.49249
10839.79453	0.81862
10835.93695	0.81862
10832.07937	0.81862
10828.22180	0.81862
10824.36422	-0.02116
10820.50664	-0.79508
10816.64906	-1.26518
10812.79148	-4.25544
10808.93391	-1.70839
10805.07633	-0.57775
10801.21875	-0.62000
10797.36117	-0.62000
10793.50359	-0.62000
10789.64602	-0.62000
10785.78844	-0.62000
10781.93086	-0.62000
10778.07328	-0.62000
10774.21570	-0.62000
10770.35812	-0.62000
10766.50055	-0.62000
10762.64297	0.26505
10758.78539	0.08875
10754.92781	0.20026
10751.07023	0.72986
10747.21266	0.72986
10743.35508	0.72986
10739.49750	0.72986
10735.63992	0.72986
10731.78234	0.72986
10727.92477	0.72986
10724.06719	0.72986
10720.20961	0.20923
10716.35203	1.12765
10712.49445	1.12765
10708.63687	1.12765
10704.77930	-0.37947
10700.92172	-0.59187
10697.06414	-0.59187
10693.20656	-0.59187
10689.34898	0.19323
10685.49141	0.91850
10681.63383	0.91850
10677.77625	0.91850
10673.91867	0.91850
10670.06109	0.59878
10666.20352	0.16036
10662.34594	-0.07455
10658.48836	-0.07455
10654.63078	-0.07455
10650.77320	0.31436
10646.91562	0.31436
10643.05805	0.31436
10639.20047	-0.27266
10635.34289	-0.26431
10631.48531	-0.06761
10627.62773	0.15258
10623.77016	1.01863
10619.91258	4.68470
10616.05500	5.30039
10612.19742	1.99424
10608.33984	0.33136
10604.48227	-0.14485
10600.62469	-0.14485
10596.76711	1.41325
10592.90953	0.35809
10589.05195	0.10013
10585.19437	0.08085
10581.33680	0.08085
10577.47922	0.17515
10573.62164	-0.02284
10569.76406	-0.30430
10565.90648	-0.00552
10562.04891	0.65257
10558.19133	0.70510
10554.33375	0.44503
10550.47617	0.44503
10546.61859	0.44503
10542.76102	0.44503
10538.90344	0.54514
10535.04586	0.85445
10531.18828	0.85445
10527.33070	-0.01354
10523.47312	-0.66195
10519.61555	-0.66195
10515.75797	-0.66195
10511.90039	-0.66195
10508.04281	-0.66195
10504.18523	-0.66195
10500.32766	-1.16212
10496.47008	-0.59376
10492.61250	1.01369
10488.75492	2.09584
10484.89734	2.09584
10481.03977	2.09584
10477.18219	2.09584
10473.32461	2.09584
10469.46703	2.09584
10465.60945	2.09584
10461.75187	2.09584
10457.89430	2.09584
10454.03672	1.14773
10450.17914	1.14773
10446.32156	0.03874
10442.46398	-0.31455
10438.60641	-0.31455
10434.74883	-0.31455
10430.89125	0.91979
10427.03367	0.91979
10423.17609	0.91979
10419.31852	-0.00059
10415.46094	0.71867
10411.60336	0.33511
10407.74578	0.33511
10403.88820	0.33511
10400.03062	0.33511
10396.17305	0.33511
10392.31547	0.33511
10388.45789	0.33511
10384.60031	0.33511
10380.74273	0.33511
10376.88516	-2.65869
10373.02758	-2.65869
10369.17000	2.09006
10365.31242	0.86140
10361.45484	0.86140
10357.59727	0.86140
10353.73969	0.33933
10349.88211	-0.67580
10346.02453	-0.67580
10342.16695	-0.67580
10338.30937	0.25303
10334.45180	0.18295
10330.59422	0.60687
10326.73664	0.60687
10322.87906	0.60687
10319.02148	3.86606
10315.16391	2.56425
10311.30633	2.56425
10307.44875	2.56425
10303.59117	2.56425
10299.73359	2.56425
10295.87602	-0.61570
10292.01844	-0.51324
10288.16086	-1.23872
10284.30328	-1.23872
10280.44570	-3.22191
10276.58812	-2.30181
10272.73055	-2.30181
10268.87297	-2.30181
10265.01539	-2.30181
10261.15781	-2.30181
10257.30023	-2.30181
10253.44266	-0.60714
10249.58508	-1.78129
10245.72750	-1.78129
10241.86992	-1.78129
10238.01234	-1.78129
10234.15477	-1.78129
10230.29719	0.93584
10226.43961	0.16973
10222.58203	-0.21911
10218.72445	0.30319
10214.86687	0.83186
10211.00930	0.44409
10207.15172	-2.40693
10203.29414	-2.40693
10199.43656	-2.40693
10195.57898	-2.40693
10191.72141	-2.40693
10187.86383	2.09793
10184.00625	2.09793
10180.14867	2.09793
10176.29109	2.09793
10172.43352	2.09793
10168.57594	0.01403
10164.71836	-0.58423
10160.86078	-0.18970
10157.00320	1.90747
10153.14562	1.90747
10149.28805	1.90747
10145.43047	1.90747
10141.57289	1.90747
10137.71531	1.17418
10133.85773	-0.28607
10130.00016	-0.28607
10126.14258	-0.28607
10122.28500	-0.28607
10118.42742	-0.28607
10114.56984	4.04815
10110.71227	1.30576
10106.85469	1.25622
10102.99711	1.04863
10099.13953	1.82523
10095.28195	1.46398
10091.42437	0.72286
10087.56680	0.72286
10083.70922	0.83613
10079.85164	-0.40371
10075.99406	-1.10029
10072.13648	-1.10029
10068.27891	2.25288
10064.42133	0.66605
10060.56375	0.63815
10056.70617	1.41390
10052.84859	1.41390
10048.99102	1.41390
10045.13344	1.41390
10041.27586	0.41171
10037.41828	-0.00946
10033.56070	-1.08038
10029.70312	1.93517
10025.84555	2.05336
10021.98797	2.05336
10018.13039	2.05336
10014.27281	2.96424
10010.41523	1.74637
10006.55766	1.76202
10002.70008	1.76202
9998.84250	1.76202
9994.98492	1.76202
9991.12734	0.51692
9987.26977	-0.10926
9983.41219	0.14290
9979.55461	0.37737
9975.69703	0.37737
9971.83945	0.37737
9967.98187	0.37737
9964.12430	0.37737
9960.26672	0.37737
9956.40914	1.38805
9952.55156	2.37392
9948.69398	2.98300
9944.83641	1.21222
9940.97883	1.42032
9937.12125	1.42032
9933.26367	1.42032
9929.40609	1.42032
9925.54852	1.42032
9921.69094	1.42032
9917.83336	1.42032
9913.97578	-0.09288
9910.11820	4.12715
9906.26062	4.12715
9902.40305	4.12715
9898.54547	4.12715
9894.68789	0.52871
9890.83031	0.91435
9886.97273	0.42190
9883.11516	-0.25400
9879.25758	-0.84024
9875.40000	-1.75576
9871.54242	-1.75576
9867.68484	2.83717
9863.82727	1.54246
9859.96969	0.46411
9856.11211	1.73960
9852.25453	1.73960
9848.39695	0.19171
9844.53937	1.80388
9840.68180	1.80388
9836.82422	1.80388
9832.96664	1.80388
9829.10906	1.80388
9825.25148	1.80388
9821.39391	1.80388
9817.53633	1.80388
9813.67875	0.26879
9809.82117	-0.11209
9805.96359	-0.11209
9802.10602	-0.11209
9798.24844	-0.11209
9794.39086	-0.11209
9790.53328	0.84093
9786.67570	1.40298
9782.81812	0.34680
9778.96055	1.16192
9775.10297	1.16192
9771.24539	1.16192
9767.38781	1.14782
9763.53023	1.03932
9759.67266	-0.17754
9755.81508	-0.25235
9751.95750	-0.23873
9748.09992	-1.23798
9744.24234	-1.23798
9740.38477	-1.23798
9736.52719	-1.23798
9732.66961	-1.23798
9728.81203	-1.23798
9724.95445	1.54094
9721.09687	0.85251
9717.23930	0.67265
9713.38172	1.64448
9709.52414	0.83030
9705.66656	0.30451
9701.80898	0.22125
9697.95141	0.22125
9694.09383	0.22125
9690.23625	0.22125
9686.37867	-0.65860
9682.52109	-0.41439
9678.66352	-1.25011
9674.80594	-1.33747
9670.94836	-0.42035
9667.09078	0.56716
9663.23320	0.56716
9659.37562	2.83441
9655.51805	0.88117
9651.66047	0.97046
9647.80289	-0.24186
9643.94531	-0.17032
9640.08773	-0.17032
9636.23016	-0.17032
9632.37258	-0.17032
9628.51500	2.04620
9624.65742	3.36443
9620.79984	3.36443
9616.94227	3.36443
9613.08469	3.36443
9609.22711	3.36443
9605.36953	0.62720
9601.51195	0.05274
9597.65437	0.06171
9593.79680	0.13309
9589.93922	0.36660
9586.08164	0.58876
9582.22406	0.36447
9578.36648	0.67032
9574.50891	2.99378
9570.65133	2.99378
9566.79375	2.99378
9562.93617	1.54943
9559.07859	1.54943
9555.22102	1.54943
9551.36344	-0.22434
9547.50586	0.23394
9543.64828	0.28799
9539.79070	0.57819
9535.93312	0.57819
9532.07555	0.57819
9528.21797	0.57819
9524.36039	0.57819
9520.50281	0.57819
9516.64523	0.57819
9512.78766	0.68652
9508.93008	0.79200
9505.07250	0.79200
9501.21492	0.79200
9497.35734	-0.59923
9493.49977	-0.07614
9489.64219	0.28223
9485.78461	0.45714
9481.92703	0.45714
9478.06945	0.45714
9474.21187	0.45714
9470.35430	0.45714
9466.49672	0.45714
9462.63914	0.53096
9458.78156	-1.16177
9454.92398	-1.16177
9451.06641	-1.16177
9447.20883	-1.16177
9443.35125	-1.16177
9439.49367	0.74371
9435.63609	0.84465
9431.77852	2.82463
9427.92094	2.82463
9424.06336	2.82463
9420.20578	-0.06980
9416.34820	-0.06980
9412.49062	-0.06980
9408.63305	-0.06980
9404.77547	-0.07862
9400.91789	0.46047
9397.06031	0.58674
9393.20273	0.85437
9389.34516	0.75466
9385.48758	-0.48083
9381.63000	-0.28167
9377.77242	0.21840
9373.91484	-0.38210
9370.05727	-0.70949
9366.19969	-0.32307
9362.34211	-0.74877
9358.48453	-0.74877
9354.62695	-0.74877
9350.76937	-0.74877
9346.91180	-0.19592
9343.05422	-0.26575
9339.19664	-0.26575
9335.33906	-0.26575
9331.48148	-0.26575
9327.62391	-0.26575
9323.76633	-0.26575
9319.90875	-0.26575
9316.05117	-0.26575
9312.19359	0.26335
9308.33602	0.31416
9304.47844	0.61670
9300.62086	0.61670
9296.76328	-0.35048
9292.90570	-0.35914
9289.04812	-0.34427
9285.19055	-0.05931
9281.33297	0.44870
9277.47539	0.77643
9273.61781	0.55906
9269.76023	0.86901
9265.90266	0.86901
9262.04508	0.86901
9258.18750	0.86901
9254.32992	0.86901
9250.47234	0.86901
9246.61477	0.86901
9242.75719	0.86901
9238.89961	0.86901
9235.04203	0.86901
9231.18445	0.86901
9227.32687	0.86901
9223.46930	0.86901
9219.61172	0.86901
9215.75414	0.86901
9211.89656	0.86901
9208.03898	3.06937
9204.18141	1.10892
9200.32383	1.24592
9196.46625	2.52028
9192.60867	0.72953
9188.75109	0.72953
9184.89352	0.72953
9181.03594	0.33176
9177.17836	0.25448
9173.32078	0.11282
9169.46320	1.91251
9165.60562	2.52394
9161.74805	2.52394
9157.89047	2.52394
9154.03289	2.52394
9150.17531	1.18533
9146.31773	-0.71474
9142.46016	-1.01992
9138.60258	0.15272
9134.74500	0.95289
9130.88742	0.97162
9127.02984	0.40638
9123.17227	-0.70163
9119.31469	-0.70163
9115.45711	1.45799
9111.59953	0.86977
9107.74195	0.38949
9103.88437	0.10616
9100.02680	0.15884
9096.16922	0.51177
9092.31164	0.55636
9088.45406	1.26478
9084.59648	1.26478
9080.73891	1.26478
9076.88133	1.06098
9073.02375	0.25498
9069.16617	0.28980
9065.30859	1.43897
9061.45102	1.43897
9057.59344	0.46896
9053.73586	0.13942
9049.87828	0.72637
9046.02070	0.76398
9042.16312	0.74043
9038.30555	0.21573
9034.44797	-0.14970
9030.59039	0.92466
9026.73281	0.94270
9022.87523	-0.45404
9019.01766	-0.45404
9015.16008	-0.45404
9011.30250	-0.45404
9007.44492	-0.45404
9003.58734	1.60038
8999.72977	1.34596
8995.87219	2.05608
8992.01461	2.47509
8988.15703	2.47509
8984.29945	2.47509
8980.44187	2.47509
8976.58430	3.13653
8972.72672	2.85479
8968.86914	2.81987
8965.01156	2.81987
8961.15398	0.37139
8957.29641	0.06059
8953.43883	0.06059
8949.58125	1.46030
8945.72367	1.46030
8941.86609	1.46030
8938.00852	1.46030
8934.15094	1.46030
8930.29336	1.46030
8926.43578	1.46030
8922.57820	1.46030
8918.72062	1.46030
8914.86305	0.74252
8911.00547	0.08525
8907.14789	-0.70362
8903.29031	-0.38512
8899.43273	-0.10670
8895.57516	-0.11876
8891.71758	0.49855
8887.86000	0.80805
8884.00242	0.72874
8880.14484	0.30906
8876.28727	-0.28207
8872.42969	-0.07012
8868.57211	0.03942
8864.71453	-0.08019
8860.85695	1.99788
8856.99937	1.65788
8853.14180	0.79712
8849.28422	0.16460
8845.42664	0.30227
8841.56906	0.08251
8837.71148	0.09943
8833.85391	0.31921
8829.99633	0.61373
8826.13875	-0.08518
8822.28117	-0.14015
8818.42359	0.10890
8814.56602	0.61197
8810.70844	0.86656
8806.85086	0.16062
8802.99328	0.13685
8799.13570	1.14058
8795.27812	1.82939
8791.42055	0.86397
8787.56297	0.35200
8783.70539	-0.01012
8779.84781	-0.26786
8775.99023	-0.01553
8772.13266	0.75523
8768.27508	1.03188
8764.41750	0.84216
8760.55992	0.54876
8756.70234	1.37173
8752.84477	1.01285
8748.98719	0.48415
8745.12961	0.05796
8741.27203	-0.09027
8737.41445	0.35577
8733.55687	0.75037
8729.69930	0.66901
8725.84172	0.22448
8721.98414	0.10388
8718.12656	0.09922
8714.26898	-0.10748
8710.41141	0.00488
8706.55383	0.37081
8702.69625	1.02997
8698.83867	1.20500
8694.98109	1.08576
8691.12352	0.95739
8687.26594	0.66830
8683.40836	0.57044
8679.55078	0.75846
8675.69320	1.70600
8671.83562	6.87234
8667.97805	0.46913
8664.12047	0.01056
8660.26289	0.48057
8656.40531	0.38374
8652.54773	-0.16996
8648.69016	-0.31010
8644.83258	0.08487
8640.97500	1.19870
8637.11742	0.50202
8633.25984	-0.80138
8629.40227	-0.79150
8625.54469	0.49326
8621.68711	-0.04874
8617.82953	0.36079
8613.97195	0.45243
8610.11437	0.22358
8606.25680	0.41418
8602.39922	0.48897
8598.54164	0.07774
8594.68406	0.20692
8590.82648	0.80796
8586.96891	0.21122
8583.11133	-0.17923
8579.25375	0.35576
8575.39617	0.68746
8571.53859	0.59052
8567.68102	0.26002
8563.82344	-0.13485
8559.96586	0.02588
8556.10828	0.21480
8552.25070	0.07897
8548.39312	-0.86587
8544.53555	-1.52724
8540.67797	-0.11971
8536.82039	0.10713
8532.96281	0.11993
8529.10523	0.69665
8525.24766	0.66633
8521.39008	-0.80788
8517.53250	-1.03074
8513.67492	-0.18516
8509.81734	0.82303
8505.95977	0.22890
8502.10219	0.59401
8498.24461	0.29168
8494.38703	0.01989
8490.52945	0.22180
8486.67187	-0.30812
8482.81430	-1.04671
8478.95672	-2.01296
8475.09914	-0.74037
8471.24156	-0.60072
8467.38398	-2.20194
8463.52641	-2.20194
8459.66883	-2.20194
8455.81125	-2.20194
8451.95367	-2.20194
8448.09609	-2.20194
8444.23852	-2.20194
8440.38094	-2.20194
8436.52336	-1.90445
8432.66578	-1.90445
8428.80820	-1.90445
8424.95062	-1.90445
8421.09305	-1.90445
8417.23547	-1.90445
8413.37789	-1.90445
8409.52031	-1.90445
8405.66273	-1.90445
8401.80516	-1.90445
8397.94758	-1.90445
8394.09000	-1.90445
8390.23242	-1.90445
8386.37484	-1.90445
8382.51727	-1.90445
8378.65969	-1.90445
8374.80211	-1.90445
8370.94453	-1.90445
8367.08695	-1.90445
8363.22937	-1.90445
8359.37180	-1.90445
8355.51422	-1.90445
8351.65664	-1.90445
8347.79906	-1.90445
8343.94148	-1.90445
8340.08391	-1.90445
8336.22633	-1.90445
8332.36875	-1.90445
8328.51117	-1.90445
8324.65359	-1.90445
8320.79602	-1.90445
8316.93844	-1.90445
8313.08086	-1.90445
8309.22328	-1.90445
8305.36570	-1.90445
8301.50812	-1.90445
8297.65055	-1.90445
8293.79297	-1.90445
8289.93539	-2.78135
8286.07781	-0.11672
8282.22023	-0.13009
8278.36266	-0.62696
8274.50508	-1.11087
8270.64750	-1.11087
8266.78992	-1.78001
8262.93234	-0.54157
8259.07477	-0.07745
8255.21719	0.65696
8251.35961	-0.08097
8247.50203	-1.08431
8243.64445	-0.34154
8239.78687	0.02487
8235.92930	0.05601
8232.07172	1.04727
8228.21414	0.40718
8224.35656	-0.07795
8220.49898	-0.08783
8216.64141	-0.08783
8212.78383	0.59234
8208.92625	0.39071
8205.06867	2.44207
8201.21109	2.44207
8197.35352	5.63936
8193.49594	1.35433
8189.63836	0.13655
8185.78078	-0.09315
8181.92320	0.35185
8178.06562	0.35185
8174.20805	0.35185
8170.35047	-0.19854
8166.49289	-0.10592
8162.63531	0.68406
8158.77773	0.91924
8154.92016	0.95292
8151.06258	2.07332
8147.20500	1.42675
8143.34742	0.42346
8139.48984	-0.49970
8135.63227	-0.06322
8131.77469	0.70529
8127.91711	0.72516
8124.05953	-0.43005
8120.20195	-0.43005
8116.34437	-0.43005
8112.48680	-0.43005
8108.62922	0.23181
8104.77164	-0.33743
8100.91406	-0.21109
8097.05648	1.04154
8093.19891	4.89910
8089.34133	4.89910
8085.48375	0.93875
8081.62617	1.62528
8077.76859	1.33154
8073.91102	-1.00699
8070.05344	-0.28435
8066.19586	0.29271
8062.33828	2.52411
8058.48070	2.52411
8054.62312	2.52411
8050.76555	2.52411
8046.90797	0.27479
8043.05039	1.02939
8039.19281	3.98693
8035.33523	3.98693
8031.47766	0.52222
8027.62008	0.38485
8023.76250	0.38485
8019.90492	0.38485
8016.04734	0.38485
8012.18977	0.38485
8008.33219	0.10672
8004.47461	0.23242
8000.61703	1.51509
7996.75945	1.51509
7992.90187	1.51509
7989.04430	1.87757
7985.18672	0.84399
7981.32914	0.56737
7977.47156	0.93080
7973.61398	0.35241
7969.75641	0.16692
7965.89883	0.99391
7962.04125	1.96274
7958.18367	0.93041
7954.32609	0.59909
7950.46852	0.66492
7946.61094	1.17703
7942.75336	0.14600
7938.89578	0.56733
7935.03820	1.60746
7931.18062	0.75671
7927.32305	0.95881
7923.46547	0.95881
7919.60789	0.95881
7915.75031	0.95881
7911.89273	0.95881
7908.03516	0.10098
7904.17758	0.12005
7900.32000	-0.02251
7896.46242	-0.02251
7892.60484	-0.02251
7888.74727	0.95929
7884.88969	0.95929
7881.03211	0.95929
7877.17453	4.21814
7873.31695	1.38898
7869.45937	0.75718
7865.60180	0.33986
7861.74422	0.33986
7857.88664	0.33986
7854.02906	0.39543
7850.17148	0.39543
7846.31391	2.42445
7842.45633	0.30148
7838.59875	0.22330
7834.74117	0.15849
7830.88359	0.17666
7827.02602	0.74376
7823.16844	0.92370
7819.31086	0.61824
7815.45328	0.20141
7811.59570	-0.30727
7807.73812	-0.29446
7803.88055	0.00035
7800.02297	0.01430
7796.16539	0.05216
7792.30781	0.56894
7788.45023	0.88895
7784.59266	0.53428
7780.73508	0.22653
7776.87750	0.42079
7773.01992	0.47913
7769.16234	0.66405
7765.30477	0.43675
7761.44719	-0.02869
7757.58961	0.21162
7753.73203	0.31885
7749.87445	0.00366
7746.01687	-0.18779
7742.15930	0.10191
7738.30172	0.50422
7734.44414	0.51916
7730.58656	0.19176
7726.72898	0.21007
7722.87141	0.61967
7719.01383	0.73956
7715.15625	0.49386
7711.29867	0.45633
7707.44109	0.86454
7703.58352	0.97303
7699.72594	0.67891
7695.86836	0.52025
7692.01078	0.45803
7688.15320	0.45353
7684.29562	0.54895
7680.43805	0.45767
7676.58047	0.56399
7672.72289	0.79358
7668.86531	0.53593
7665.00773	0.50584
7661.15016	0.53893
7657.29258	0.46259
7653.43500	0.18972
7649.57742	-0.21447
7645.71984	0.01866
7641.86227	0.42053
7638.00469	0.50190
7634.14711	0.40881
7630.28953	0.37250
7626.43195	0.24818
7622.57437	0.10018
7618.71680	0.32451
7614.85922	0.64897
7611.00164	0.49637
7607.14406	0.29148
7603.28648	0.32574
7599.42891	0.35080
7595.57133	0.19372
7591.71375	0.09037
7587.85617	0.05943
7583.99859	0.09181
7580.14102	0.31970
7576.28344	0.28553
7572.42586	0.16153
7568.56828	0.22199
7564.71070	0.27859
7560.85312	0.25628
7556.99555	0.29958
7553.13797	0.20821
7549.28039	0.09872
7545.42281	0.20898
7541.56523	0.30143
7537.70766	0.27327
7533.85008	0.22745
7529.99250	0.13771
7526.13492	0.18708
7522.27734	0.38816
7518.41977	0.39742
7514.56219	0.30724
7510.70461	0.37107
7506.84703	0.46538
7502.98945	0.34122
7499.13187	0.22854
7495.27430	0.27141
7491.41672	0.36983
7487.55914	0.46557
7483.70156	0.46338
7479.84398	0.39212
7475.98641	0.36893
7472.12883	0.34431
7468.27125	0.33655
7464.41367	0.30350
7460.55609	0.22920
7456.69852	0.20586
7452.84094	0.22797
7448.98336	0.13913
7445.12578	0.14812
7441.26820	0.28876
7437.41062	0.34710
7433.55305	0.34737
7429.69547	0.31570
7425.83789	0.29534
7421.98031	0.37506
7418.12273	0.34037
7414.26516	0.28604
7410.40758	0.30237
7406.55000	0.23177
7402.69242	0.26845
7398.83484	0.31577
7394.97727	0.22551
7391.11969	0.29433
7387.26211	0.41440
7383.40453	0.30641
7379.54695	0.23481
7375.68937	0.32056
7371.83180	0.36699
7367.97422	0.31755
7364.11664	0.23816
7360.25906	0.20201
7356.40148	0.31653
7352.54391	0.48686
7348.68633	0.34326
7344.82875	0.13939
7340.97117	0.27411
7337.11359	0.47491
7333.25602	0.49736
7329.39844	0.47683
7325.54086	0.34875
7321.68328	0.23098
7317.82570	0.22165
7313.96812	0.27051
7310.11055	0.37861
7306.25297	0.34459
7302.39539	0.26344
7298.53781	0.26688
7294.68023	0.24306
7290.82266	0.23677
7286.96508	0.30418
7283.10750	0.28285
7279.24992	0.20075
7275.39234	0.20368
7271.53477	0.24598
7267.67719	0.27781
7263.81961	0.32981
7259.96203	0.38863
7256.10445	0.42714
7252.24687	0.41517
7248.38930	0.33246
7244.53172	0.26838
7240.67414	0.32623
7236.81656	0.42370
7232.95898	0.36579
7229.10141	0.32843
7225.24383	0.38300
7221.38625	0.37945
7217.52867	0.33303
7213.67109	0.30628
7209.81352	0.28085
7205.95594	0.33535
7202.09836	0.42736
7198.24078	0.42377
7194.38320	0.35506
7190.52562	0.28782
7186.66805	0.24138
7182.81047	0.22138
7178.95289	0.25288
7175.09531	0.35726
7171.23773	0.44707
7167.38016	0.42336
7163.52258	0.37538
7159.66500	0.29113
7155.80742	0.19902
7151.94984	0.23459
7148.09227	0.38832
7144.23469	0.43442
7140.37711	0.33219
7136.51953	0.28339
7132.66195	0.26507
7128.80437	0.27538
7124.94680	0.33167
7121.08922	0.36608
7117.23164	0.37666
7113.37406	0.37113
7109.51648	0.33619
7105.65891	0.32024
7101.80133	0.34241
7097.94375	0.34986
7094.08617	0.33468
7090.22859	0.32822
7086.37102	0.31802
7082.51344	0.31363
7078.65586	0.33468
7074.79828	0.33888
7070.94070	0.32607
7067.08312	0.31599
7063.22555	0.28004
7059.36797	0.24598
7055.51039	0.27429
7051.65281	0.34019
7047.79523	0.36174
7043.93766	0.31141
7040.08008	0.28046
7036.22250	0.30017
7032.36492	0.27425
7028.50734	0.24181
7024.64977	0.27499
7020.79219	0.27706
7016.93461	0.25764
7013.07703	0.29795
7009.21945	0.34002
7005.36187	0.34600
7001.50430	0.30439
6997.64672	0.30047
6993.78914	0.34361
6989.93156	0.30852
6986.07398	0.27140
6982.21641	0.30692
6978.35883	0.31321
6974.50125	0.26788
6970.64367	0.27988
6966.78609	0.31793
6962.92852	0.27030
6959.07094	0.20074
6955.21336	0.22807
6951.35578	0.32981
6947.49820	0.38375
6943.64062	0.38547
6939.78305	0.34025
6935.92547	0.32086
6932.06789	0.34240
6928.21031	0.29271
6924.35273	0.25870
6920.49516	0.25496
6916.63758	0.21593
6912.78000	0.24152
6908.92242	0.30418
6905.06484	0.34571
6901.20727	0.35006
6897.34969	0.30192
6893.49211	0.30096
6889.63453	0.34341
6885.77695	0.33167
6881.91937	0.28523
6878.06180	0.30452
6874.20422	0.33472
6870.34664	0.27308
6866.48906	0.25276
6862.63148	0.29183
6858.77391	0.31794
6854.91633	0.35857
6851.05875	0.33863
6847.20117	0.28304
6843.34359	0.26244
6839.48602	0.25870
6835.62844	0.31520
6831.77086	0.32513
6827.91328	0.26867
6824.05570	0.28878
6820.19812	0.29986
6816.34055	0.30405
6812.48297	0.34600
6808.62539	0.30522
6804.76781	0.24543
6800.91023	0.25490
6797.05266	0.27366
6793.19508	0.27477
6789.33750	0.28362
6785.47992	0.28352
6781.62234	0.26100
6777.76477	0.22932
6773.90719	0.21929
6770.04961	0.27182
6766.19203	0.29972
6762.33445	0.24747
6758.47687	0.24883
6754.61930	0.29630
6750.76172	0.33666
6746.90414	0.32552
6743.04656	0.27184
6739.18898	0.28022
6735.33141	0.30376
6731.47383	0.30906
6727.61625	0.32621
6723.75867	0.32357
6719.90109	0.32572
6716.04352	0.32647
6712.18594	0.30729
6708.32836	0.28737
6704.47078	0.28015
6700.61320	0.27576
6696.75562	0.26346
6692.89805	0.29418
6689.04047	0.34180
6685.18289	0.33113
6681.32531	0.29687
6677.46773	0.27098
6673.61016	0.27537
6669.75258	0.29150
6665.89500	0.27966
6662.03742	0.28583
6658.17984	0.31074
6654.32227	0.28815
6650.46469	0.26095
6646.60711	0.31367
6642.74953	0.34800
6638.89195	0.29706
6635.03437	0.26757
6631.17680	0.28682
6627.31922	0.31497
6623.46164	0.30407
6619.60406	0.27231
6615.74648	0.30527
6611.88891	0.31724
6608.03133	0.28139
6604.17375	0.29007
6600.31617	0.29884
6596.45859	0.30730
6592.60102	0.33905
6588.74344	0.31021
6584.88586	0.25778
6581.02828	0.27515
6577.17070	0.31138
6573.31312	0.31113
6569.45555	0.29623
6565.59797	0.29032
6561.74039	0.30897
6557.88281	0.33423
6554.02523	0.32907
6550.16766	0.31407
6546.31008	0.29660
6542.45250	0.26773
6538.59492	0.27692
6534.73734	0.30950
6530.87977	0.31969
6527.02219	0.30686
6523.16461	0.27233
6519.30703	0.27302
6515.44945	0.29759
6511.59187	0.26653
6507.73430	0.25408
6503.87672	0.30223
6500.01914	0.31891
6496.16156	0.28565
6492.30398	0.27322
6488.44641	0.29674
6484.58883	0.31268
6480.73125	0.31170
6476.87367	0.30333
6473.01609	0.28775
6469.15852	0.27122
6465.30094	0.27291
6461.44336	0.30411
6457.58578	0.32295
6453.72820	0.30912
6449.87062	0.30027
6446.01305	0.28540
6442.15547	0.26282
6438.29789	0.26798
6434.44031	0.30272
6430.58273	0.33058
6426.72516	0.32241
6422.86758	0.30547
6419.01000	0.28871
6415.15242	0.26971
6411.29484	0.27110
6407.43727	0.26693
6403.57969	0.27406
6399.72211	0.30702
6395.86453	0.30670
6392.00695	0.29051
6388.14937	0.29533
6384.29180	0.30471
6380.43422	0.29467
6376.57664	0.26961
6372.71906	0.26829
6368.86148	0.28817
6365.00391	0.30915
6361.14633	0.30598
6357.28875	0.27709
6353.43117	0.28158
6349.57359	0.30338
6345.71602	0.31129
6341.85844	0.32257
6338.00086	0.31386
6334.14328	0.29085
6330.28570	0.29754
6326.42812	0.31993
6322.57055	0.31033
6318.71297	0.28288
6314.85539	0.27194
6310.99781	0.26763
6307.14023	0.28775
6303.28266	0.31831
6299.42508	0.30699
6295.56750	0.30306
6291.70992	0.33441
6287.85234	0.32600
6283.99477	0.28517
6280.13719	0.28290
6276.27961	0.30848
6272.42203	0.31460
6268.56445	0.29695
6264.70687	0.28442
6260.84930	0.27163
6256.99172	0.25735
6253.13414	0.26357
6249.27656	0.27172
6245.41898	0.27233
6241.56141	0.27569
6237.70383	0.27811
6233.84625	0.28986
6229.98867	0.30300
6226.13109	0.30007
6222.27352	0.28504
6218.41594	0.26856
6214.55836	0.26298
6210.70078	0.27859
6206.84320	0.29828
6202.98562	0.28821
6199.12805	0.27625
6195.27047	0.28265
6191.41289	0.27115
6187.55531	0.26539
6183.69773	0.28423
6179.84016	0.28936
6175.98258	0.28837
6172.12500	0.28881
6168.26742	0.28880
6164.40984	0.29741
6160.55227	0.28831
6156.69469	0.28524
6152.83711	0.30307
6148.97953	0.28981
6145.12195	0.28395
6141.26437	0.30824
6137.40680	0.30579
6133.54922	0.29772
6129.69164	0.30009
6125.83406	0.28792
6121.97648	0.28456
6118.11891	0.29557
6114.26133	0.29589
6110.40375	0.29207
6106.54617	0.29245
6102.68859	0.29317
6098.83102	0.29967
6094.97344	0.29710
6091.11586	0.27507
6087.25828	0.25911
6083.40070	0.26369
6079.54312	0.28569
6075.68555	0.30445
6071.82797	0.30409
6067.97039	0.30043
6064.11281	0.29217
6060.25523	0.27873
6056.39766	0.27664
6052.54008	0.29078
6048.68250	0.30341
6044.82492	0.29632
6040.96734	0.30371
6037.10977	0.32285
6033.25219	0.31107
6029.39461	0.29877
6025.53703	0.29384
6021.67945	0.27860
6017.82187	0.27064
6013.96430	0.26069
6010.10672	0.25511
6006.24914	0.27713
6002.39156	0.29763
5998.53398	0.29065
5994.67641	0.28563
5990.81883	0.29788
5986.96125	0.29449
5983.10367	0.28598
5979.24609	0.29624
5975.38852	0.29705
5971.53094	0.28277
5967.67336	0.26621
5963.81578	0.26882
5959.95820	0.29618
5956.10062	0.30014
5952.24305	0.28993
5948.38547	0.29599
5944.52789	0.29207
5940.67031	0.27547
5936.81273	0.26054
5932.95516	0.26324
5929.09758	0.28109
5925.24000	0.27997
5921.38242	0.27233
5917.52484	0.27728
5913.66727	0.28755
5909.80969	0.29057
5905.95211	0.26955
5902.09453	0.26195
5898.23695	0.27935
5894.37937	0.27314
5890.52180	0.27159
5886.66422	0.28808
5882.80664	0.28462
5878.94906	0.28502
5875.09148	0.29247
5871.23391	0.27927
5867.37633	0.26663
5863.51875	0.26475
5859.66117	0.26650
5855.80359	0.28890
5851.94602	0.31097
5848.08844	0.29855
5844.23086	0.28143
5840.37328	0.28267
5836.51570	0.28787
5832.65812	0.29016
5828.80055	0.28155
5824.94297	0.27421
5821.08539	0.27714
5817.22781	0.26726
5813.37023	0.25880
5809.51266	0.27318
5805.65508	0.27802
5801.79750	0.26806
5797.93992	0.27564
5794.08234	0.28238
5790.22477	0.27437
5786.36719	0.27830
5782.50961	0.28551
5778.65203	0.27694
5774.79445	0.26893
5770.93687	0.27741
5767.07930	0.28777
5763.22172	0.28632
5759.36414	0.28362
5755.50656	0.28069
5751.64898	0.27628
5747.79141	0.27797
5743.93383	0.28012
5740.07625	0.27447
5736.21867	0.26433
5732.36109	0.26762
5728.50352	0.27764
5724.64594	0.26856
5720.78836	0.25869
5716.93078	0.26377
5713.07320	0.26432
5709.21562	0.26279
5705.35805	0.27078
5701.50047	0.27602
5697.64289	0.28030
5693.78531	0.28926
5689.92773	0.29143
5686.07016	0.29085
5682.21258	0.29045
5678.35500	0.28598
5674.49742	0.28350
5670.63984	0.28050
5666.78227	0.27175
5662.92469	0.26595
5659.06711	0.27209
5655.20953	0.28202
5651.35195	0.28982
5647.49437	0.29193
5643.63680	0.28351
5639.77922	0.28133
5635.92164	0.28665
5632.06406	0.27857
5628.20648	0.26628
5624.34891	0.26849
5620.49133	0.27755
5616.63375	0.28162
5612.77617	0.28040
5608.91859	0.27823
5605.06102	0.28015
5601.20344	0.28410
5597.34586	0.28361
5593.48828	0.27811
5589.63070	0.27767
5585.77312	0.28738
5581.91555	0.29394
5578.05797	0.28920
5574.20039	0.27746
5570.34281	0.26893
5566.48523	0.26710
5562.62766	0.26599
5558.77008	0.26922
5554.91250	0.27943
5551.05492	0.28836
5547.19734	0.28271
5543.33977	0.26625
5539.48219	0.25973
5535.62461	0.26608
5531.76703	0.27826
5527.90945	0.28553
5524.05187	0.28278
5520.19430	0.28330
5516.33672	0.28616
5512.47914	0.28280
5508.62156	0.27890
5504.76398	0.27531
5500.90641	0.27102
5497.04883	0.27259
5493.19125	0.28128
5489.33367	0.28828
5485.47609	0.28586
5481.61852	0.28160
5477.76094	0.28013
5473.90336	0.27142
5470.04578	0.27052
5466.18820	0.28862
5462.33062	0.29749
5458.47305	0.28739
5454.61547	0.27773
5450.75789	0.27398
5446.90031	0.27751
5443.04273	0.28800
5439.18516	0.29430
5435.32758	0.29239
5431.47000	0.28484
5427.61242	0.27621
5423.75484	0.27695
5419.89727	0.27933
5416.03969	0.27640
5412.18211	0.28430
5408.32453	0.29204
5404.46695	0.28594
5400.60937	0.28210
5396.75180	0.27804
5392.89422	0.26922
5389.03664	0.27422
5385.17906	0.28780
5381.32148	0.28333
5377.46391	0.27192
5373.60633	0.27279
5369.74875	0.27337
5365.89117	0.27471
5362.03359	0.28205
5358.17602	0.28132
5354.31844	0.27418
5350.46086	0.27663
5346.60328	0.27997
5342.74570	0.27667
5338.88812	0.27916
5335.03055	0.27718
5331.17297	0.27170
5327.31539	0.27581
5323.45781	0.27604
5319.60023	0.27565
5315.74266	0.27966
5311.88508	0.27614
5308.02750	0.26968
5304.16992	0.26948
5300.31234	0.27190
5296.45477	0.26974
5292.59719	0.26801
5288.73961	0.27137
5284.88203	0.27498
5281.02445	0.27766
5277.16687	0.27619
5273.30930	0.27511
5269.45172	0.27575
5265.59414	0.27003
5261.73656	0.26556
5257.87898	0.27016
5254.02141	0.27640
5250.16383	0.27709
5246.30625	0.27710
5242.44867	0.28016
5238.59109	0.28263
5234.73352	0.28329
5230.87594	0.28016
5227.01836	0.27887
5223.16078	0.27853
5219.30320	0.27191
5215.44562	0.26887
5211.58805	0.27103
5207.73047	0.26984
5203.87289	0.26923
5200.01531	0.27160
5196.15773	0.27303
5192.30016	0.27204
5188.44258	0.27060
5184.58500	0.26957
5180.72742	0.27015
5176.86984	0.27597
5173.01227	0.28115
5169.15469	0.27952
5165.29711	0.27773
5161.43953	0.27508
5157.58195	0.26967
5153.72437	0.27122
5149.86680	0.27548
5146.00922	0.27207
5142.15164	0.27023
5138.29406	0.27529
5134.43648	0.28009
5130.57891	0.28246
5126.72133	0.27577
5122.86375	0.26482
5119.00617	0.26672
5115.14859	0.27235
5111.29102	0.26931
5107.43344	0.26633
5103.57586	0.26567
5099.71828	0.26794
5095.86070	0.27488
5092.00312	0.27643
5088.14555	0.27060
5084.28797	0.26987
5080.43039	0.27485
5076.57281	0.27403
5072.71523	0.26902
5068.85766	0.26922
5065.00008	0.27043
5061.14250	0.26689
5057.28492	0.26850
5053.42734	0.27904
5049.56977	0.27964
5045.71219	0.26879
5041.85461	0.26764
5037.99703	0.27139
5034.13945	0.26832
5030.28187	0.26624
5026.42430	0.26734
5022.56672	0.26908
5018.70914	0.27014
5014.85156	0.26990
5010.99398	0.26956
5007.13641	0.26908
5003.27883	0.27302
4999.42125	0.27629
4995.56367	0.27108
4991.70609	0.26724
4987.84852	0.26859
4983.99094	0.26951
4980.13336	0.26806
4976.27578	0.26875
4972.41820	0.27349
4968.56062	0.27186
4964.70305	0.26920
4960.84547	0.27468
4956.98789	0.27554
4953.13031	0.27101
4949.27273	0.26993
4945.41516	0.27278
4941.55758	0.27711
4937.70000	0.27723
4933.84242	0.27613
4929.98484	0.27502
4926.12727	0.26851
4922.26969	0.26579
4918.41211	0.27207
4914.55453	0.27548
4910.69695	0.27157
4906.83937	0.27023
4902.98180	0.27297
4899.12422	0.27051
4895.26664	0.26846
4891.40906	0.27334
4887.55148	0.27219
4883.69391	0.26379
4879.83633	0.26465
4875.97875	0.27452
4872.12117	0.27717
4868.26359	0.27188
4864.40602	0.26876
4860.54844	0.27081
4856.69086	0.27516
4852.83328	0.27244
4848.97570	0.26730
4845.11812	0.27212
4841.26055	0.27732
4837.40297	0.27792
4833.54539	0.27782
4829.68781	0.27295
4825.83023	0.26714
4821.97266	0.26636
4818.11508	0.26698
4814.25750	0.26596
4810.39992	0.26642
4806.54234	0.27095
4802.68477	0.27493
4798.82719	0.27279
4794.96961	0.27002
4791.11203	0.27298
4787.25445	0.27605
4783.39687	0.27357
4779.53930	0.26892
4775.68172	0.26896
4771.82414	0.27095
4767.96656	0.27050
4764.10898	0.27209
4760.25141	0.27176
4756.39383	0.26981
4752.53625	0.27283
4748.67867	0.27278
4744.82109	0.26930
4740.96352	0.26950
4737.10594	0.27077
4733.24836	0.27213
4729.39078	0.27108
4725.53320	0.26820
4721.67562	0.27147
4717.81805	0.27620
4713.96047	0.27561
4710.10289	0.27211
4706.24531	0.26803
4702.38773	0.26935
4698.53016	0.27418
4694.67258	0.27456
4690.81500	0.27385
4686.95742	0.27302
4683.09984	0.26915
4679.24227	0.26716
4675.38469	0.26983
4671.52711	0.27325
4667.66953	0.27466
4663.81195	0.27307
4659.95437	0.27151
4656.09680	0.27235
4652.23922	0.27089
4648.38164	0.27032
4644.52406	0.27430
4640.66648	0.27565
4636.80891	0.27297
4632.95133	0.26865
4629.09375	0.26656
4625.23617	0.26932
4621.37859	0.27079
4617.52102	0.27219
4613.66344	0.27395
4609.80586	0.26961
4605.94828	0.26637
4602.09070	0.26773
4598.23312	0.26719
4594.37555	0.26792
4590.51797	0.27000
4586.66039	0.26915
4582.80281	0.26969
4578.94523	0.27224
4575.08766	0.27095
4571.23008	0.26670
4567.37250	0.26647
4563.51492	0.27070
4559.65734	0.27184
4555.79977	0.26911
4551.94219	0.26733
4548.08461	0.26760
4544.22703	0.26990
4540.36945	0.27041
4536.51187	0.26782
4532.65430	0.26776
4528.79672	0.27009
4524.93914	0.27122
4521.08156	0.27098
4517.22398	0.26985
4513.36641	0.26952
4509.50883	0.27113
4505.65125	0.27276
4501.79367	0.27216
4497.93609	0.26853
4494.07852	0.26467
4490.22094	0.26632
4486.36336	0.27021
4482.50578	0.27101
4478.64820	0.27184
4474.79062	0.27230
4470.93305	0.27115
4467.07547	0.26999
4463.21789	0.26985
4459.36031	0.27078
4455.50273	0.26867
4451.64516	0.26621
4447.78758	0.26904
4443.93000	0.27185
4440.07242	0.27033
4436.21484	0.26898
4432.35727	0.26968
4428.49969	0.26926
4424.64211	0.26918
4420.78453	0.26975
4416.92695	0.26766
4413.06937	0.26653
4409.21180	0.26831
4405.35422	0.26783
4401.49664	0.26573
4397.63906	0.26692
4393.78148	0.26882
4389.92391	0.26839
4386.06633	0.26784
4382.20875	0.26745
4378.35117	0.26869
4374.49359	0.26954
4370.63602	0.26630
4366.77844	0.26545
4362.92086	0.26669
4359.06328	0.26526
4355.20570	0.26778
4351.34812	0.27093
4347.49055	0.26854
4343.63297	0.26956
4339.77539	0.27229
4335.91781	0.26948
4332.06023	0.26719
4328.20266	0.26697
4324.34508	0.26641
4320.48750	0.26711
4316.62992	0.26805
4312.77234	0.26910
4308.91477	0.27067
4305.05719	0.27138
4301.19961	0.27149
4297.34203	0.27083
4293.48445	0.26963
4289.62687	0.26906
4285.76930	0.26803
4281.91172	0.26723
4278.05414	0.26812
4274.19656	0.26964
4270.33898	0.27151
4266.48141	0.27185
4262.62383	0.26986
4258.76625	0.26823
4254.90867	0.26765
4251.05109	0.26768
4247.19352	0.26685
4243.33594	0.26681
4239.47836	0.26973
4235.62078	0.27115
4231.76320	0.27038
4227.90562	0.26953
4224.04805	0.26835
4220.19047	0.26921
4216.33289	0.27157
4212.47531	0.27215
4208.61773	0.27163
4204.76016	0.27138
4200.90258	0.27062
4197.04500	0.26982
4193.18742	0.26975
4189.32984	0.26868
4185.47227	0.26705
4181.61469	0.26747
4177.75711	0.26861
4173.89953	0.26897
4170.04195	0.27110
4166.18437	0.27292
4162.32680	0.27053
4158.46922	0.26845
4154.61164	0.26957
4150.75406	0.27071
4146.89648	0.27143
4143.03891	0.27171
4139.18133	0.27079
4135.32375	0.27016
4131.46617	0.27071
4127.60859	0.27206
4123.75102	0.27197
4119.89344	0.26886
4116.03586	0.26701
4112.17828	0.26813
4108.32070	0.26849
4104.46312	0.26818
4100.60555	0.26866
4096.74797	0.26930
4092.89039	0.26894
4089.03281	0.26832
4085.17523	0.26926
4081.31766	0.27015
4077.46008	0.26965
4073.60250	0.26804
4069.74492	0.26626
4065.88734	0.26682
4062.02977	0.26855
4058.17219	0.26877
4054.31461	0.26855
4050.45703	0.26887
4046.59945	0.26813
4042.74187	0.26629
4038.88430	0.26680
4035.02672	0.26915
4031.16914	0.26923
4027.31156	0.26773
4023.45398	0.26722
4019.59641	0.26823
4015.73883	0.26963
4011.88125	0.26972
4008.02367	0.27011
4004.16609	0.27017
4000.30852	0.26821
3996.45094	0.26767
3992.59336	0.26870
3988.73578	0.26828
3984.87820	0.26757
3981.02062	0.26819
3977.16305	0.26872
3973.30547	0.26812
3969.44789	0.26799
3965.59031	0.26818
3961.73273	0.26861
3957.87516	0.27013
3954.01758	0.27053
3950.16000	0.26911
3946.30242	0.26831
3942.44484	0.26920
3938.58727	0.26949
3934.72969	0.26860
3930.87211	0.26920
3927.01453	0.27072
3923.15695	0.27055
3919.29937	0.26972
3915.44180	0.26964
3911.58422	0.26886
3907.72664	0.26695
3903.86906	0.26733
3900.01148	0.27095
3896.15391	0.27116
3892.29633	0.26920
3888.43875	0.26764
3884.58117	0.26792
3880.72359	0.26811
3876.86602	0.26675
3873.00844	0.26622
3869.15086	0.26834
3865.29328	0.26964
3861.43570	0.26876
3857.57812	0.26764
3853.72055	0.26592
3849.86297	0.26679
3846.00539	0.26882
3842.14781	0.26958
3838.29023	0.26828
3834.43266	0.26820
3830.57508	0.26831
3826.71750	0.26770
3822.85992	0.26759
3819.00234	0.26792
3815.14477	0.26748
3811.28719	0.26754
3807.42961	0.26757
3803.57203	0.26665
3799.71445	0.26714
3795.85687	0.26831
3791.99930	0.26824
3788.14172	0.26801
3784.28414	0.26795
3780.42656	0.26764
3776.56898	0.26801
3772.71141	0.26900
3768.85383	0.26820
3764.99625	0.26552
3761.13867	0.26497
3757.28109	0.26696
3753.42352	0.26842
3749.56594	0.26772
3745.70836	0.26712
3741.85078	0.26680
3737.99320	0.26505
3734.13562	0.26215
3730.27805	0.26175
3726.42047	0.26297
3722.56289	0.26422
3718.70531	0.26451
3714.84773	0.26582
3710.99016	0.26722
3707.13258	0.26573
3703.27500	0.26476
3699.41742	0.26482
3695.55984	0.26506
3691.70227	0.26490
3687.84469	0.26606
3683.98711	0.26752
3680.12953	0.26717
3676.27195	0.26590
3672.41437	0.26617
3668.55680	0.26658
3664.69922	0.26621
3660.84164	0.26513
3656.98406	0.26438
3653.12648	0.26519
3649.26891	0.26641
3645.41133	0.26583
3641.55375	0.26526
3637.69617	0.26484
3633.83859	0.26459
3629.98102	0.26498
3626.12344	0.26472
3622.26586	0.26474
3618.40828	0.26550
3614.55070	0.26516
3610.69312	0.26411
3606.83555	0.26295
3602.97797	0.26285
3599.12039	0.26363
3595.26281	0.26356
3591.40523	0.26293
3587.54766	0.26340
3583.69008	0.26492
3579.83250	0.26507
3575.97492	0.26451
3572.11734	0.26472
3568.25977	0.26435
3564.40219	0.26424
3560.54461	0.26516
3556.68703	0.26557
3552.82945	0.26551
3548.97187	0.26444
3545.11430	0.26390
3541.25672	0.26475
3537.39914	0.26503
3533.54156	0.26524
3529.68398	0.26507
3525.82641	0.26474
3521.96883	0.26545
3518.11125	0.26562
3514.25367	0.26529
3510.39609	0.26485
3506.53852	0.26422
3502.68094	0.26465
3498.82336	0.26554
3494.96578	0.26557
3491.10820	0.26487
3487.25062	0.26418
3483.39305	0.26412
3479.53547	0.26430
3475.67789	0.26442
3471.82031	0.26442
3467.96273	0.26439
3464.10516	0.26481
3460.24758	0.26472
3456.39000	0.26396
3452.53242	0.26389
3448.67484	0.26410
3444.81727	0.26409
3440.95969	0.26422
3437.10211	0.26411
3433.24453	0.26377
3429.38695	0.26392
3425.52937	0.26421
3421.67180	0.26394
3417.81422	0.26379
3413.95664	0.26395
3410.09906	0.26366
3406.24148	0.26315
3402.38391	0.26279
3398.52633	0.26319
3394.66875	0.26429
3390.81117	0.26441
3386.95359	0.26364
3383.09602	0.26373
3379.23844	0.26409
3375.38086	0.26329
3371.52328	0.26295
3367.66570	0.26354
3363.80812	0.26311
3359.95055	0.26310
3356.09297	0.26374
3352.23539	0.26332
3348.37781	0.26325
3344.52023	0.26389
3340.66266	0.26425
3336.80508	0.26378
3332.94750	0.26301
3329.08992	0.26319
3325.23234	0.26342
3321.37477	0.26341
3317.51719	0.26352
3313.65961	0.26307
3309.80203	0.26259
3305.94445	0.26261
3302.08687	0.26277
3298.22930	0.26293
3294.37172	0.26288
3290.51414	0.26281
3286.65656	0.26308
3282.79898	0.26338
3278.94141	0.26370
3275.08383	0.26371
3271.22625	0.26329
3267.36867	0.26333
3263.51109	0.26323
3259.65352	0.26275
3255.79594	0.26287
3251.93836	0.26286
3248.08078	0.26251
3244.22320	0.26249
3240.36562	0.26221
3236.50805	0.26193
3232.65047	0.26220
3228.79289	0.26183
3224.93531	0.26129
3221.07773	0.26197
3217.22016	0.26224
3213.36258	0.26141
3209.50500	0.26121
3205.64742	0.26150
3201.78984	0.26148
3197.93227	0.26163
3194.07469	0.26139
3190.21711	0.26075
3186.35953	0.26124
3182.50195	0.26176
3178.64437	0.26130
3174.78680	0.26117
3170.92922	0.26114
3167.07164	0.26081
3163.21406	0.26034
3159.35648	0.25985
3155.49891	0.25978
3151.64133	0.26014
3147.78375	0.26048
3143.92617	0.26052
3140.06859	0.26075
3136.21102	0.26065
3132.35344	0.25971
3128.49586	0.25953
3124.63828	0.26016
3120.78070	0.26024
3116.92312	0.25978
3113.06555	0.25929
3109.20797	0.25938
3105.35039	0.25946
3101.49281	0.25895
3097.63523	0.25894
3093.77766	0.25945
3089.92008	0.25935
3086.06250	0.25882
3082.20492	0.25857
3078.34734	0.25856
3074.48977	0.25871
3070.63219	0.25841
3066.77461	0.25787
3062.91703	0.25803
3059.05945	0.25816
3055.20187	0.25826
3051.34430	0.25840
3047.48672	0.25804
3043.62914	0.25796
3039.77156	0.25805
3035.91398	0.25801
3032.05641	0.25803
3028.19883	0.25770
3024.34125	0.25754
3020.48367	0.25774
3016.62609	0.25761
3012.76852	0.25734
3008.91094	0.25712
3005.05336	0.25693
3001.19578	0.25694
2997.33820	0.25701
2993.48062	0.25696
2989.62305	0.25679
2985.76547	0.25626
2981.90789	0.25580
2978.05031	0.25618
2974.19273	0.25657
2970.33516	0.25645
2966.47758	0.25622
2962.62000	0.25581
2958.76242	0.25569
2954.90484	0.25580
2951.04727	0.25569
2947.18969	0.25582
2943.33211	0.25582
2939.47453	0.25549
2935.61695	0.25545
2931.75937	0.25543
2927.90180	0.25540
2924.04422	0.25548
2920.18664	0.25533
2916.32906	0.25518
2912.47148	0.25504
2908.61391	0.25457
2904.75633	0.25422
2900.89875	0.25427
2897.04117	0.25427
2893.18359	0.25412
2889.32602	0.25401
2885.46844	0.25391
2881.61086	0.25374
2877.75328	0.25365
2873.89570	0.25365
2870.03812	0.25340
2866.18055	0.25312
2862.32297	0.25297
2858.46539	0.25277
2854.60781	0.25289
2850.75023	0.25335
2846.89266	0.25339
2843.03508	0.25276
2839.17750	0.25234
2835.31992	0.25263
2831.46234	0.25279
2827.60477	0.25257
2823.74719	0.25253
2819.88961	0.25249
2816.03203	0.25233
2812.17445	0.25224
2808.31687	0.25201
2804.45930	0.25171
2800.60172	0.25169
2796.74414	0.25163
2792.88656	0.25127
2789.02898	0.25122
2785.17141	0.25132
2781.31383	0.25087
2777.45625	0.25048
2773.59867	0.25057
2769.74109	0.25060
2765.88352	0.25037
2762.02594	0.25036
2758.16836	0.25050
2754.31078	0.25007
2750.45320	0.24967
2746.59562	0.24997
2742.73805	0.25002
2738.88047	0.24958
2735.02289	0.24934
2731.16531	0.24920
2727.30773	0.24883
2723.45016	0.24865
2719.59258	0.24887
2715.73500	0.24874
2711.87742	0.24834
2708.01984	0.24825
2704.16227	0.24830
2700.30469	0.24837
2696.44711	0.24813
2692.58953	0.24760
2688.73195	0.24745
2684.87437	0.24743
2681.01680	0.24705
2677.15922	0.24675
2673.30164	0.24677
2669.44406	0.24672
2665.58648	0.24642
2661.72891	0.24607
2657.87133	0.24599
2654.01375	0.24606
2650.15617	0.24581
2646.29859	0.24561
2642.44102	0.24569
2638.58344	0.24550
2634.72586	0.24508
2630.86828	0.24484
2627.01070	0.24492
2623.15312	0.24513
2619.29555	0.24498
2615.43797	0.24454
2611.58039	0.24431
2607.72281	0.24425
2603.86523	0.24409
2600.00766	0.24385
2596.15008	0.24361
2592.29250	0.24344
2588.43492	0.24327
2584.57734	0.24318
2580.71977	0.24319
2576.86219	0.24284
2573.00461	0.24229
2569.14703	0.24200
2565.28945	0.24179
2561.43187	0.24161
2557.57430	0.24162
2553.71672	0.24159
2549.85914	0.24137
2546.00156	0.24115
2542.14398	0.24081
2538.28641	0.24047
2534.42883	0.24019
2530.57125	0.23993
2526.71367	0.23975
2522.85609	0.23963
2518.99852	0.23966
2515.14094	0.23960
2511.28336	0.23924
2507.42578	0.23880
2503.56820	0.23848
2499.71062	0.23847
2495.85305	0.23834
2491.99547	0.23802
2488.13789	0.23794
2484.28031	0.23778
2480.42273	0.23752
2476.56516	0.23742
2472.70758	0.23724
2468.85000	0.23695
2464.99242	0.23666
2461.13484	0.23629
2457.27727	0.23605
2453.41969	0.23608
2449.56211	0.23610
2445.70453	0.23582
2441.84695	0.23534
2437.98937	0.23480
2434.13180	0.23433
2430.27422	0.23421
2426.41664	0.23420
2422.55906	0.23394
2418.70148	0.23377
2414.84391	0.23375
2410.98633	0.23340
2407.12875	0.23297
2403.27117	0.23284
2399.41359	0.23272
2395.55602	0.23239
2391.69844	0.23181
2387.84086	0.23034
2383.98328	0.22714
2380.12570	0.22218
2376.26812	0.21601
2372.41055	0.20965
2368.55297	0.20730
2364.69539	0.20964
2360.83781	0.20870
2356.98023	0.20367
2353.12266	0.20115
2349.26508	0.20005
2345.40750	0.19679
2341.54992	0.19331
2337.69234	0.19435
2333.83477	0.19570
2329.97719	0.19639
2326.11961	0.19814
2322.26203	0.20244
2318.40445	0.20649
2314.54687	0.20925
2310.68930	0.21192
2306.83172	0.21430
2302.97414	0.21624
2299.11656	0.21780
2295.25898	0.21901
2291.40141	0.22043
2287.54383	0.22208
2283.68625	0.22307
2279.82867	0.22281
2275.97109	0.22202
2272.11352	0.22183
2268.25594	0.22185
2264.39836	0.22159
2260.54078	0.22155
2256.68320	0.22163
2252.82562	0.22158
2248.96805	0.22160
2245.11047	0.22149
2241.25289	0.22125
2237.39531	0.22113
2233.53773	0.22090
2229.68016	0.22063
2225.82258	0.22044
2221.96500	0.22002
2218.10742	0.21954
2214.24984	0.21923
2210.39227	0.21896
2206.53469	0.21865
2202.67711	0.21817
2198.81953	0.21785
2194.96195	0.21781
2191.10437	0.21758
2187.24680	0.21720
2183.38922	0.21690
2179.53164	0.21657
2175.67406	0.21611
2171.81648	0.21562
2167.95891	0.21535
2164.10133	0.21520
2160.24375	0.21481
2156.38617	0.21443
2152.52859	0.21422
2148.67102	0.21378
2144.81344	0.21333
2140.95586	0.21310
2137.09828	0.21287
2133.24070	0.21259
2129.38312	0.21213
2125.52555	0.21151
2121.66797	0.21112
2117.81039	0.21080
2113.95281	0.21047
2110.09523	0.21011
2106.23766	0.20961
2102.38008	0.20935
2098.52250	0.20921
2094.66492	0.20888
2090.80734	0.20860
2086.94977	0.20821
2083.09219	0.20757
2079.23461	0.20710
2075.37703	0.20686
2071.51945	0.20644
2067.66187	0.20587
2063.80430	0.20564
2059.94672	0.20547
2056.08914	0.20504
2052.23156	0.20457
2048.37398	0.20406
2044.51641	0.20355
2040.65883	0.20317
2036.80125	0.20287
2032.94367	0.20251
2029.08609	0.20199
2025.22852	0.20155
2021.37094	0.20120
2017.51336	0.20071
2013.65578	0.20025
2009.79820	0.19994
2005.94062	0.19954
2002.08305	0.19913
1998.22547	0.19872
1994.36789	0.19819
1990.51031	0.19786
1986.65273	0.19755
1982.79516	0.19709
1978.93758	0.19665
1975.08000	0.19604
1971.22242	0.19553
1967.36484	0.19525
1963.50727	0.19479
1959.64969	0.19431
1955.79211	0.19388
1951.93453	0.19335
1948.07695	0.19280
1944.21937	0.19235
1940.36180	0.19195
1936.50422	0.19142
1932.64664	0.19094
1928.78906	0.19064
1924.93148	0.19032
1921.07391	0.18979
1917.21633	0.18908
1913.35875	0.18851
1909.50117	0.18809
1905.64359	0.18767
1901.78602	0.18730
1897.92844	0.18683
1894.07086	0.18631
1890.21328	0.18594
1886.35570	0.18543
1882.49812	0.18486
1878.64055	0.18449
1874.78297	0.18406
1870.92539	0.18344
1867.06781	0.18284
1863.21023	0.18246
1859.35266	0.18214
1855.49508	0.18168
1851.63750	0.18110
1847.77992	0.18044
1843.92234	0.17994
1840.06477	0.17962
1836.20719	0.17910
1832.34961	0.17851
1828.49203	0.17810
1824.63445	0.17774
1820.77687	0.17724
1816.91930	0.17665
1813.06172	0.17608
1809.20414	0.17556
1805.34656	0.17509
1801.48898	0.17453
1797.63141	0.17401
1793.77383	0.17378
1789.91625	0.17345
1786.05867	0.17282
1782.20109	0.17206
1778.34352	0.17155
1774.48594	0.17136
1770.62836	0.17099
1766.77078	0.17044
1762.91320	0.16979
1759.05562	0.16923
1755.19805	0.16874
1751.34047	0.16796
1747.48289	0.16746
1743.62531	0.16726
1739.76773	0.16690
1735.91016	0.16645
1732.05258	0.16588
1728.19500	0.16537
1724.33742	0.16491
1720.47984	0.16445
1716.62227	0.16375
1712.76469	0.16328
1708.90711	0.16287
1705.04953	0.16228
1701.19195	0.16198
1697.33437	0.16147
1693.47680	0.16084
1689.61922	0.16052
1685.76164	0.16028
1681.90406	0.15990
1678.04648	0.15920
1674.18891	0.15842
1670.33133	0.15812
1666.47375	0.15786
1662.61617	0.15709
1658.75859	0.15640
1654.90102	0.15597
1651.04344	0.15592
1647.18586	0.15580
1643.32828	0.15520
1639.47070	0.15480
1635.61312	0.15438
1631.75555	0.15387
1627.89797	0.15348
1624.04039	0.15313
1620.18281	0.15299
1616.32523	0.15272
1612.46766	0.15236
1608.61008	0.15212
1604.75250	0.15174
1600.89492	0.15141
1597.03734	0.15121
1593.17977	0.15102
1589.32219	0.15089
1585.46461	0.15072
1581.60703	0.15040
1577.74945	0.15011
1573.89187	0.15008
1570.03430	0.15004
1566.17672	0.14981
1562.31914	0.14961
1558.46156	0.14994
1554.60398	0.14993
1550.74641	0.14935
1546.88883	0.14919
1543.03125	0.14970
1539.17367	0.15036
1535.31609	0.15025
1531.45852	0.14983
1527.60094	0.14960
1523.74336	0.14998
1519.88578	0.15065
1516.02820	0.15068
1512.17062	0.15062
1508.31305	0.15106
1504.45547	0.15146
1500.59789	0.15168
1496.74031	0.15217
1492.88273	0.15260
1489.02516	0.15321
1485.16758	0.15391
1481.31000	0.15425
1477.45242	0.15480
1473.59484	0.15584
1469.73727	0.15640
1465.87969	0.15683
1462.02211	0.15769
1458.16453	0.15925
1454.30695	0.16058
1450.44937	0.16121
1446.59180	0.16208
1442.73422	0.16280
1438.87664	0.16367
1435.01906	0.16526
1431.16148	0.16650
1427.30391	0.16772
1423.44633	0.16922
1419.58875	0.17088
1415.73117	0.17264
1411.87359	0.17410
1408.01602	0.17585
1404.15844	0.17768
1400.30086	0.17934
1396.44328	0.18133
1392.58570	0.18334
1388.72812	0.18552
1384.87055	0.18791
1381.01297	0.19001
1377.15539	0.19234
1373.29781	0.19509
1369.44023	0.19741
1365.58266	0.19985
1361.72508	0.20281
1357.86750	0.20565
1354.00992	0.20840
1350.15234	0.21137
1346.29477	0.21445
1342.43719	0.21766
1338.57961	0.22124
1334.72203	0.22448
1330.86445	0.22766
1327.00687	0.23118
1323.14930	0.23466
1319.29172	0.23846
1315.43414	0.24243
1311.57656	0.24621
1307.71898	0.25006
1303.86141	0.25410
1300.00383	0.25842
1296.14625	0.26264
1292.28867	0.26681
1288.43109	0.27106
1284.57352	0.27534
1280.71594	0.27982
1276.85836	0.28432
1273.00078	0.28884
1269.14320	0.29351
1265.28562	0.29824
1261.42805	0.30295
1257.57047	0.30773
1253.71289	0.31269
1249.85531	0.31771
1245.99773	0.32256
1242.14016	0.32744
1238.28258	0.33249
1234.42500	0.33752
1230.56742	0.34272
1226.70984	0.34799
1222.85227	0.35311
1218.99469	0.35813
1215.13711	0.36328
1211.27953	0.36864
1207.42195	0.37390
1203.56437	0.37893
1199.70680	0.38389
1195.84922	0.38913
1191.99164	0.39443
1188.13406	0.39965
1184.27648	0.40491
1180.41891	0.40998
1176.56133	0.41505
1172.70375	0.42028
1168.84617	0.42568
1164.98859	0.43100
1161.13102	0.43608
1157.27344	0.44124
1153.41586	0.44644
1149.55828	0.45156
1145.70070	0.45656
1141.84312	0.46147
1137.98555	0.46628
1134.12797	0.47106
1130.27039	0.47598
1126.41281	0.48095
1122.55523	0.48585
1118.69766	0.49068
1114.84008	0.49536
1110.98250	0.49980
1107.12492	0.50442
1103.26734	0.50908
1099.40977	0.51350
1095.55219	0.51804
1091.69461	0.52253
1087.83703	0.52698
1083.97945	0.53136
1080.12187	0.53538
1076.26430	0.53931
1072.40672	0.54328
1068.54914	0.54730
1064.69156	0.55149
1060.83398	0.55561
1056.97641	0.55936
1053.11883	0.56314
1049.26125	0.56716
1045.40367	0.57098
1041.54609	0.57464
1037.68852	0.57853
1033.83094	0.58260
1029.97336	0.58638
1026.11578	0.58998
1022.25820	0.59357
1018.40062	0.59720
1014.54305	0.60104
1010.68547	0.60467
1006.82789	0.60819
1002.97031	0.61177
999.11273	0.61502
995.25516	0.61830
991.39758	0.62182
987.54000	0.62517
983.68242	0.62871
979.82484	0.63239
975.96727	0.63558
972.10969	0.63866
968.25211	0.64204
964.39453	0.64523
960.53695	0.64795
956.67937	0.65079
952.82180	0.65390
948.96422	0.65677
945.10664	0.65935
941.24906	0.66222
937.39148	0.66553
933.53391	0.66833
929.67633	0.67073
925.81875	0.67352
921.96117	0.67662
918.10359	0.67973
914.24602	0.68246
910.38844	0.68523
906.53086	0.68821
902.67328	0.69064
898.81570	0.69270
894.95812	0.69525
891.10055	0.69803
887.24297	0.70050
883.38539	0.70277
879.52781	0.70456
875.67023	0.70657
871.81266	0.70938
867.95508	0.71167
864.09750	0.71359
860.23992	0.71605
856.38234	0.71830
852.52477	0.72011
848.66719	0.72221
844.80961	0.72422
840.95203	0.72625
837.09445	0.72873
833.23687	0.73076
829.37930	0.73255
825.52172	0.73475
821.66414	0.73653
817.80656	0.73796
813.94898	0.73985
810.09141	0.74190
806.23383	0.74424
802.37625	0.74659
798.51867	0.74805
794.66109	0.74955
790.80352	0.75146
786.94594	0.75305
783.08836	0.75477
779.23078	0.75683
775.37320	0.75836
771.51562	0.75924
767.65805	0.76076
763.80047	0.76270
759.94289	0.76423
756.08531	0.76577
752.22773	0.76757
748.37016	0.76968
744.51258	0.77124
740.65500	0.77207
736.79742	0.77307
732.93984	0.77413
729.08227	0.77541
725.22469	0.77572
721.36711	0.77521
717.50953	0.77747
713.65195	0.78010
709.79437	0.78020
705.93680	0.77985
702.07922	0.77894
698.22164	0.77730
694.36406	0.77516
690.50648	0.77271
686.64891	0.77175
682.79133	0.77044
678.93375	0.76934
675.07617	0.76912
671.21859	0.76877
667.36102	0.77553
663.50344	0.78074
659.64586	0.77975
655.78828	0.78025
651.93070	0.78201
648.07312	0.78478
644.21555	0.79067
640.35797	0.79454
636.50039	0.79777
632.64281	0.80216
628.78523	0.80479
624.92766	0.80656
621.07008	0.80724
617.21250	0.80775
613.35492	0.81085
609.49734	0.81292
605.63977	0.81324
601.78219	0.81462
597.92461	0.81568
594.06703	0.81586
590.20945	0.81713
586.35187	0.81878
582.49430	0.81994
578.63672	0.82116
574.77914	0.82169
570.92156	0.82219
567.06398	0.82346
563.20641	0.82494
559.34883	0.82673
555.49125	0.82809
551.63367	0.82948
547.77609	0.83116
543.91852	0.83137
540.06094	0.83153
536.20336	0.83117
532.34578	0.82870
528.48820	0.82886
524.63062	0.83215
520.77305	0.83360
516.91547	0.83447
513.05789	0.83577
509.20031	0.83714
505.34273	0.83938
501.48516	0.84007
497.62758	0.83992
493.77000	0.84143
489.91242	0.84202
486.05484	0.84083
482.19727	0.84140
478.33969	0.84320
474.48211	0.84324
470.62453	0.84424
466.76695	0.84686
462.90937	0.84538
459.05180	0.84246
455.19422	0.84439
451.33664	0.84634
447.47906	0.84713
443.62148	0.84941
439.76391	0.85066
435.90633	0.84820
432.04875	0.84613
428.19117	0.85266
424.33359	0.86007
420.47602	0.85397
416.61844	0.84751
412.76086	0.85041
408.90328	0.84999
405.04570	0.84723
401.18812	0.83734
397.33055	0.82949
393.47297	0.85403
389.61539	0.85426
385.75781	0.83812
381.90023	0.86003
378.04266	0.88400
374.18508	0.88959
370.32750	0.88992
366.46992	0.85800
362.61234	0.81617
358.75477	0.81771
354.89719	0.83053
351.03961	0.75023
347.18203	0.76633
343.32445	0.86843
339.46687	0.83189
335.60930	0.66180
331.75172	0.14051
327.89414	-0.26932
324.03656	-0.57499
320.17898	-0.48992
316.32141	-0.28615
312.46383	-0.44715
308.60625	-0.64213
304.74867	-0.42992
300.89109	-0.20764
