14998.26375	-0.20764
14994.40617	-0.20764
14990.54859	-0.20764
14986.69102	-0.20764
14982.83344	-0.20764
14978.97586	0.73238
14975.11828	0.19928
14971.26070	-0.13933
14967.40312	-0.13933
14963.54555	-0.43871
14959.68797	1.04241
14955.83039	2.24696
14951.97281	1.66784
14948.11523	-0.22958
14944.25766	-0.09907
14940.40008	0.08721
14936.54250	0.31479
14932.68492	0.85287
14928.82734	0.95407
14924.96977	0.36418
14921.11219	-0.01715
14917.25461	0.46791
14913.39703	0.46791
14909.53945	0.46791
14905.68187	2.81680
14901.82430	0.53658
14897.96672	-0.52258
14894.10914	-0.52258
14890.25156	2.44029
14886.39398	2.09184
14882.53641	2.49352
14878.67883	1.64312
14874.82125	-1.73348
14870.96367	-3.19927
14867.10609	-3.19927
14863.24852	-3.19927
14859.39094	-3.19927
14855.53336	-0.18734
14851.67578	0.38144
14847.81820	0.46183
14843.96062	0.44063
14840.10305	0.60392
14836.24547	1.46447
14832.38789	1.46447
14828.53031	1.46447
14824.67273	1.46447
14820.81516	1.46447
14816.95758	0.53001
14813.10000	2.03703
14809.24242	2.03703
14805.38484	2.03703
14801.52727	-9.75885
14797.66969	-0.64775
14793.81211	-0.64775
14789.95453	-0.64775
14786.09695	-0.62374
14782.23937	-0.62374
14778.38180	-0.62374
14774.52422	-0.62374
14770.66664	-0.62374
14766.80906	0.66899
14762.95148	1.26779
14759.09391	0.64624
14755.23633	0.21631
14751.37875	0.29573
14747.52117	-0.43532
14743.66359	-0.71593
14739.80602	-0.72817
14735.94844	0.20092
14732.09086	-1.54605
14728.23328	-1.54605
14724.37570	-1.54605
14720.51812	-1.54605
14716.66055	-1.54605
14712.80297	-1.54605
14708.94539	-1.54605
14705.08781	-1.54605
14701.23023	-1.54605
14697.37266	-1.54605
14693.51508	0.47616
14689.65750	0.47616
14685.79992	0.47616
14681.94234	0.47616
14678.08477	0.47616
14674.22719	0.47616
14670.36961	0.47616
14666.51203	0.47616
14662.65445	-0.50333
14658.79687	-0.10511
14654.93930	-0.10511
14651.08172	-0.10511
14647.22414	-0.10511
14643.36656	-0.10511
14639.50898	-0.33415
14635.65141	-0.57133
14631.79383	-0.57133
14627.93625	0.64643
14624.07867	0.45875
14620.22109	0.97695
14616.36352	0.97695
14612.50594	0.97695
14608.64836	0.79987
14604.79078	0.27215
14600.93320	-0.38703
14597.07562	-1.10662
14593.21805	-0.55330
14589.36047	-0.22109
14585.50289	-0.48536
14581.64531	-0.39158
14577.78773	-0.39158
14573.93016	-0.39158
14570.07258	0.13577
14566.21500	0.33750
14562.35742	0.28326
14558.49984	-0.38637
14554.64227	-0.33683
14550.78469	-0.33683
14546.92711	-0.33683
14543.06953	-0.58566
14539.21195	-0.27353
14535.35437	-0.27353
14531.49680	-0.27353
14527.63922	-0.27353
14523.78164	1.60157
14519.92406	3.79714
14516.06648	3.79714
14512.20891	3.79714
14508.35133	3.79714
14504.49375	-0.53401
14500.63617	0.13107
14496.77859	0.85055
14492.92102	0.85055
14489.06344	0.85055
14485.20586	0.85055
14481.34828	1.64825
14477.49070	1.07503
14473.63312	1.07503
14469.77555	1.07503
14465.91797	1.60364
14462.06039	1.60364
14458.20281	1.60364
14454.34523	1.60364
14450.48766	1.60364
14446.63008	3.52182
14442.77250	4.10642
14438.91492	4.10642
14435.05734	4.10642
14431.19977	-0.10579
14427.34219	-0.30327
14423.48461	-1.10304
14419.62703	-1.10304
14415.76945	-1.10304
14411.91187	0.53146
14408.05430	0.55494
14404.19672	0.94978
14400.33914	0.19136
14396.48156	-0.48074
14392.62398	-0.48074
14388.76641	-0.48074
14384.90883	-0.68836
14381.05125	-0.28827
14377.19367	-0.28827
14373.33609	-0.28827
14369.47852	1.16545
14365.62094	-0.25297
14361.76336	-0.63674
14357.90578	0.15446
14354.04820	0.56148
14350.19062	0.39007
14346.33305	0.98101
14342.47547	0.98101
14338.61789	0.98101
14334.76031	0.98101
14330.90273	-2.77572
14327.04516	-2.77572
14323.18758	-1.26511
14319.33000	-0.35546
14315.47242	0.10704
14311.61484	0.62345
14307.75727	0.77105
14303.89969	0.86476
14300.04211	0.32950
14296.18453	-0.77927
14292.32695	-1.54039
14288.46937	-0.46301
14284.61180	0.24380
14280.75422	0.03320
14276.89664	-0.18700
14273.03906	0.01316
14269.18148	0.01316
14265.32391	0.01316
14261.46633	0.01316
14257.60875	0.01316
14253.75117	0.01316
14249.89359	0.72743
14246.03602	0.53477
14242.17844	0.85970
14238.32086	0.98418
14234.46328	0.98418
14230.60570	0.98418
14226.74812	0.98418
14222.89055	0.98418
14219.03297	0.98418
14215.17539	0.96135
14211.31781	1.93111
14207.46023	1.93111
14203.60266	1.93111
14199.74508	1.93111
14195.88750	-1.47985
14192.02992	-1.15783
14188.17234	-1.15783
14184.31477	-1.46321
14180.45719	-1.46321
14176.59961	-1.46321
14172.74203	-1.46321
14168.88445	0.67477
14165.02687	-0.28912
14161.16930	-0.32205
14157.31172	-0.06109
14153.45414	-0.06109
14149.59656	-0.06109
14145.73898	-0.06109
14141.88141	-0.06109
14138.02383	1.74184
14134.16625	1.17706
14130.30867	0.76147
14126.45109	1.17919
14122.59352	1.17919
14118.73594	1.17919
14114.87836	1.17919
14111.02078	1.81915
14107.16320	1.09142
14103.30562	1.07397
14099.44805	0.92254
14095.59047	0.92254
14091.73289	0.92254
14087.87531	0.92254
14084.01773	0.99431
14080.16016	1.62028
14076.30258	0.92481
14072.44500	0.47396
14068.58742	1.02292
14064.72984	1.02292
14060.87227	0.76219
14057.01469	1.75488
14053.15711	1.75488
14049.29953	1.75488
14045.44195	1.75488
14041.58437	1.75488
14037.72680	1.75488
14033.86922	1.75488
14030.01164	1.75488
14026.15406	1.75488
14022.29648	-1.25036
14018.43891	-1.24283
14014.58133	-1.24283
14010.72375	4.50688
14006.86617	4.50688
14003.00859	4.50688
13999.15102	4.50688
13995.29344	-1.05527
13991.43586	-0.87085
13987.57828	-0.87085
13983.72070	0.70857
13979.86312	1.72865
13976.00555	9.24170
13972.14797	7.50578
13968.29039	1.92213
13964.43281	1.92213
13960.57523	-0.56238
13956.71766	0.00039
13952.86008	0.36132
13949.00250	0.36132
13945.14492	0.36132
13941.28734	0.65367
13937.42977	1.27206
13933.57219	3.79985
13929.71461	3.47229
13925.85703	3.47229
13921.99945	-2.50860
13918.14187	-0.76519
13914.28430	-0.76519
13910.42672	-0.76519
13906.56914	-0.76519
13902.71156	-0.76519
13898.85398	-0.76519
13894.99641	-2.59246
13891.13883	-2.59246
13887.28125	-2.59246
13883.42367	-2.59246
13879.56609	-1.91247
13875.70852	-1.91247
13871.85094	-0.54726
13867.99336	0.34576
13864.13578	-0.72517
13860.27820	0.13281
13856.42062	1.29414
13852.56305	1.29414
13848.70547	1.29414
13844.84789	1.29414
13840.99031	1.29414
13837.13273	0.85583
13833.27516	3.03571
13829.41758	3.03571
13825.56000	3.03571
13821.70242	0.33634
13817.84484	0.00694
13813.98727	-0.01298
13810.12969	0.61840
13806.27211	0.88408
13802.41453	0.09437
13798.55695	-0.21185
13794.69937	-0.21185
13790.84180	4.08425
13786.98422	0.06159
13783.12664	-0.10284
13779.26906	-0.10284
13775.41148	-0.10284
13771.55391	3.04144
13767.69633	-0.77225
13763.83875	-0.77225
13759.98117	-0.77225
13756.12359	-0.40376
13752.26602	0.66242
13748.40844	2.72129
13744.55086	2.72129
13740.69328	2.72129
13736.83570	0.23353
13732.97812	0.57585
13729.12055	0.57585
13725.26297	0.57585
13721.40539	0.53769
13717.54781	0.44325
13713.69023	1.02839
13709.83266	1.41352
13705.97508	0.61870
13702.11750	0.07656
13698.25992	0.19192
13694.40234	0.19192
13690.54477	0.19192
13686.68719	3.19349
13682.82961	0.88868
13678.97203	0.54730
13675.11445	0.54730
13671.25687	0.54730
13667.39930	3.34103
13663.54172	4.75167
13659.68414	-0.34415
13655.82656	-0.26286
13651.96898	0.18125
13648.11141	0.47442
13644.25383	0.20873
13640.39625	0.13087
13636.53867	0.55633
13632.68109	0.55633
13628.82352	0.55633
13624.96594	0.55633
13621.10836	0.68198
13617.25078	0.80897
13613.39320	0.17284
13609.53562	-0.57356
13605.67805	-0.57356
13601.82047	-0.57356
13597.96289	0.28986
13594.10531	0.20412
13590.24773	0.47727
13586.39016	-4.39965
13582.53258	-4.39965
13578.67500	-4.39965
13574.81742	0.71307
13570.95984	0.76884
13567.10227	1.53685
13563.24469	0.46979
13559.38711	-0.82124
13555.52953	-0.47363
13551.67195	0.45868
13547.81437	-0.52833
13543.95680	-1.12548
13540.09922	-0.18508
13536.24164	0.39136
13532.38406	0.44012
13528.52648	0.57323
13524.66891	0.52955
13520.81133	-0.22032
13516.95375	0.72080
13513.09617	3.90544
13509.23859	3.90544
13505.38102	3.90544
13501.52344	-0.03319
13497.66586	-0.17048
13493.80828	0.23228
13489.95070	0.26404
13486.09312	-0.38171
13482.23555	-0.38171
13478.37797	0.44972
13474.52039	0.44972
13470.66281	0.44972
13466.80523	1.21461
13462.94766	-0.26598
13459.09008	-0.36242
13455.23250	0.13269
13451.37492	-0.05335
13447.51734	-0.05335
13443.65977	-0.21770
13439.80219	0.32135
13435.94461	0.75391
13432.08703	1.76350
13428.22945	2.41874
13424.37187	1.63862
13420.51430	1.23832
13416.65672	1.14146
13412.79914	0.18446
13408.94156	0.18446
13405.08398	0.18446
13401.22641	0.18446
13397.36883	3.80114
13393.51125	2.03737
13389.65367	-1.38000
13385.79609	-3.16517
13381.93852	-3.16517
13378.08094	-3.16517
13374.22336	-3.16517
13370.36578	-3.16517
13366.50820	4.74650
13362.65062	6.27595
13358.79305	6.27595
13354.93547	6.27595
13351.07789	-0.86713
13347.22031	-0.07727
13343.36273	0.58894
13339.50516	1.29517
13335.64758	1.81475
13331.79000	1.76514
13327.93242	1.21890
13324.07484	0.77250
13320.21727	-0.27714
13316.35969	-0.90735
13312.50211	-1.60647
13308.64453	-1.60647
13304.78695	1.20032
13300.92937	1.13356
13297.07180	1.13356
13293.21422	1.13356
13289.35664	1.13356
13285.49906	1.70667
13281.64148	3.09179
13277.78391	3.09179
13273.92633	0.10483
13270.06875	0.10483
13266.21117	0.10483
13262.35359	0.10483
13258.49602	-0.50670
13254.63844	-0.11184
13250.78086	0.51711
13246.92328	0.51711
13243.06570	0.51711
13239.20812	-0.05167
13235.35055	0.80493
13231.49297	1.35048
13227.63539	1.12101
13223.77781	1.80144
13219.92023	3.06888
13216.06266	0.56673
13212.20508	0.56673
13208.34750	0.56673
13204.48992	-0.00802
13200.63234	-0.00802
13196.77477	3.59863
13192.91719	1.43973
13189.05961	2.36702
13185.20203	2.36702
13181.34445	2.36702
13177.48687	2.36702
13173.62930	2.36702
13169.77172	2.50406
13165.91414	2.07375
13162.05656	2.07375
13158.19898	2.07375
13154.34141	-0.14223
13150.48383	0.52285
13146.62625	1.00125
13142.76867	1.11111
13138.91109	1.11111
13135.05352	1.11111
13131.19594	1.11111
13127.33836	1.11111
13123.48078	1.11111
13119.62320	1.11111
13115.76562	1.11111
13111.90805	1.11111
13108.05047	1.31761
13104.19289	0.42550
13100.33531	0.23125
13096.47773	0.18214
13092.62016	0.16167
13088.76258	-0.08716
13084.90500	-0.08716
13081.04742	-0.08716
13077.18984	0.88238
13073.33227	0.73707
13069.47469	0.16179
13065.61711	0.16179
13061.75953	0.16179
13057.90195	0.16179
13054.04437	7.90768
13050.18680	2.64925
13046.32922	-0.09399
13042.47164	0.01011
13038.61406	1.23494
13034.75648	2.08915
13030.89891	2.08915
13027.04133	2.08915
13023.18375	1.55314
13019.32617	-0.23022
13015.46859	-0.23022
13011.61102	-0.23022
13007.75344	-0.23022
13003.89586	-0.23022
13000.03828	-0.23022
12996.18070	-0.63518
12992.32312	-0.39676
12988.46555	-0.14658
12984.60797	0.85218
12980.75039	4.28962
12976.89281	4.28962
12973.03523	4.28962
12969.17766	1.02774
12965.32008	1.01513
12961.46250	0.80029
12957.60492	-0.02509
12953.74734	-0.02509
12949.88977	-0.02509
12946.03219	-0.02509
12942.17461	-0.02509
12938.31703	0.49544
12934.45945	0.41350
12930.60187	0.41350
12926.74430	0.41350
12922.88672	0.41350
12919.02914	0.41350
12915.17156	1.93300
12911.31398	0.69334
12907.45641	1.06231
12903.59883	1.06231
12899.74125	1.06231
12895.88367	-2.68543
12892.02609	0.76037
12888.16852	0.76037
12884.31094	0.76037
12880.45336	-2.76223
12876.59578	0.85180
12872.73820	0.85180
12868.88062	0.85180
12865.02305	3.78394
12861.16547	0.02546
12857.30789	0.03066
12853.45031	0.71833
12849.59273	1.24025
12845.73516	1.24025
12841.87758	1.24025
12838.02000	0.32620
12834.16242	0.95746
12830.30484	0.35899
12826.44727	0.06110
12822.58969	0.23314
12818.73211	0.76369
12814.87453	0.76369
12811.01695	0.76369
12807.15937	3.51460
12803.30180	3.51460
12799.44422	3.51460
12795.58664	3.51460
12791.72906	0.86778
12787.87148	0.30854
12784.01391	0.30854
12780.15633	0.30854
12776.29875	2.65739
12772.44117	2.51592
12768.58359	2.51592
12764.72602	1.70612
12760.86844	1.14450
12757.01086	2.42993
12753.15328	0.71298
12749.29570	-0.44630
12745.43812	0.00988
12741.58055	3.22004
12737.72297	3.22004
12733.86539	3.22004
12730.00781	3.22004
12726.15023	3.22004
12722.29266	3.22004
12718.43508	3.22004
12714.57750	0.14436
12710.71992	2.13541
12706.86234	2.41704
12703.00477	1.39521
12699.14719	1.39521
12695.28961	1.39521
12691.43203	-0.09958
12687.57445	-0.47553
12683.71687	-0.47553
12679.85930	0.46157
12676.00172	0.95183
12672.14414	0.95183
12668.28656	-3.27495
12664.42898	-0.62653
12660.57141	-0.62653
12656.71383	-0.62653
12652.85625	-0.62653
12648.99867	-0.62653
12645.14109	0.86363
12641.28352	0.86363
12637.42594	0.86363
12633.56836	0.92381
12629.71078	0.92381
12625.85320	0.92381
12621.99562	0.33663
12618.13805	0.65671
12614.28047	0.65671
12610.42289	0.65671
12606.56531	0.65671
12602.70773	0.65671
12598.85016	3.17974
12594.99258	1.76011
12591.13500	0.72344
12587.27742	0.22883
12583.41984	0.58325
12579.56227	1.61239
12575.70469	1.61239
12571.84711	1.61239
12567.98953	1.61239
12564.13195	1.61239
12560.27437	1.61239
12556.41680	6.30555
12552.55922	1.93299
12548.70164	2.24722
12544.84406	1.35454
12540.98648	0.43111
12537.12891	0.88333
12533.27133	0.88333
12529.41375	0.88333
12525.55617	0.88333
12521.69859	0.66818
12517.84102	0.25996
12513.98344	0.39456
12510.12586	1.14556
12506.26828	1.25281
12502.41070	1.05329
12498.55312	1.45860
12494.69555	0.58533
12490.83797	0.58533
12486.98039	0.58533
12483.12281	0.58533
12479.26523	0.58533
12475.40766	-1.43365
12471.55008	0.30232
12467.69250	0.37089
12463.83492	-0.30709
12459.97734	-0.30709
12456.11977	-0.30709
12452.26219	-0.30709
12448.40461	-0.30709
12444.54703	-0.30709
12440.68945	-0.30709
12436.83187	2.48684
12432.97430	2.48684
12429.11672	1.04165
12425.25914	0.57514
12421.40156	1.16551
12417.54398	1.91534
12413.68641	1.08275
12409.82883	1.08275
12405.97125	1.08275
12402.11367	1.08275
12398.25609	1.30504
12394.39852	0.12225
12390.54094	-0.01314
12386.68336	-0.01314
12382.82578	-1.94064
12378.96820	-1.94064
12375.11062	-1.94064
12371.25305	2.58370
12367.39547	-0.00303
12363.53789	-0.97975
12359.68031	-2.85263
12355.82273	-2.85263
12351.96516	-2.85263
12348.10758	-2.85263
12344.25000	3.19594
12340.39242	0.78820
12336.53484	-0.48942
12332.67727	-0.04985
12328.81969	1.93959
12324.96211	3.67706
12321.10453	3.67706
12317.24695	3.67706
12313.38937	3.67706
12309.53180	-1.43422
12305.67422	-1.43422
12301.81664	-1.43422
12297.95906	-1.43422
12294.10148	-1.43422
12290.24391	-1.43422
12286.38633	-1.43422
12282.52875	-1.43422
12278.67117	1.30314
12274.81359	0.82596
12270.95602	2.02004
12267.09844	2.02004
12263.24086	2.05333
12259.38328	2.05333
12255.52570	2.05333
12251.66812	2.05333
12247.81055	1.91719
12243.95297	1.27696
12240.09539	0.93954
12236.23781	-0.45715
12232.38023	-1.11278
12228.52266	-1.11278
12224.66508	-1.11278
12220.80750	-0.81100
12216.94992	-0.81100
12213.09234	-0.81100
12209.23477	3.33794
12205.37719	0.77430
12201.51961	0.19975
12197.66203	0.44225
12193.80445	1.78792
12189.94687	0.92057
12186.08930	0.63692
12182.23172	1.22282
12178.37414	-0.05058
12174.51656	-0.57340
12170.65898	-0.57340
12166.80141	-0.57340
12162.94383	-0.57340
12159.08625	1.23644
12155.22867	1.07392
12151.37109	1.47230
12147.51352	0.11079
12143.65594	-1.36000
12139.79836	-0.14402
12135.94078	-0.14402
12132.08320	-0.14402
12128.22562	-0.31072
12124.36805	1.53489
12120.51047	1.53489
12116.65289	2.68795
12112.79531	0.62950
12108.93773	0.42444
12105.08016	0.44223
12101.22258	0.44223
12097.36500	0.44223
12093.50742	0.44223
12089.64984	0.44223
12085.79227	0.44223
12081.93469	-0.46109
12078.07711	0.69930
12074.21953	2.92248
12070.36195	2.92248
12066.50437	-0.35308
12062.64680	-0.55712
12058.78922	-0.54616
12054.93164	-0.10275
12051.07406	-0.10275
12047.21648	-0.10275
12043.35891	-0.01793
12039.50133	0.30622
12035.64375	1.02708
12031.78617	1.02708
12027.92859	1.02708
12024.07102	1.05328
12020.21344	0.36459
12016.35586	0.26132
12012.49828	0.26132
12008.64070	0.26132
12004.78312	1.38215
12000.92555	0.60299
11997.06797	0.37818
11993.21039	0.55045
11989.35281	0.71101
11985.49523	0.71101
11981.63766	0.71101
11977.78008	0.71101
11973.92250	0.71101
11970.06492	0.71101
11966.20734	0.71101
11962.34977	0.71101
11958.49219	0.97441
11954.63461	1.96519
11950.77703	1.01626
11946.91945	0.56098
11943.06187	4.01616
11939.20430	4.01616
11935.34672	1.51941
11931.48914	1.03779
11927.63156	1.03779
11923.77398	2.12410
11919.91641	2.12410
11916.05883	2.12410
11912.20125	2.12410
11908.34367	0.25268
11904.48609	-0.78276
11900.62852	-1.26595
11896.77094	1.05986
11892.91336	2.23802
11889.05578	1.06195
11885.19820	0.21121
11881.34062	0.21121
11877.48305	-0.58606
11873.62547	0.00273
11869.76789	1.66217
11865.91031	0.83474
11862.05273	0.58322
11858.19516	-0.16500
11854.33758	-0.16500
11850.48000	-0.16500
11846.62242	-0.16500
11842.76484	-0.16500
11838.90727	0.81068
11835.04969	1.13676
11831.19211	1.13676
11827.33453	1.13676
11823.47695	1.13676
11819.61937	1.13676
11815.76180	1.13676
11811.90422	1.13676
11808.04664	1.13676
11804.18906	1.13676
11800.33148	-0.10499
11796.47391	-0.10499
11792.61633	-0.10499
11788.75875	-0.10499
11784.90117	-0.10499
11781.04359	-0.10499
11777.18602	-0.10499
11773.32844	-0.10499
11769.47086	0.08854
11765.61328	0.08854
11761.75570	0.08854
11757.89812	1.83147
11754.04055	1.76243
11750.18297	1.76243
11746.32539	1.76243
11742.46781	1.76243
11738.61023	1.76243
11734.75266	1.76243
11730.89508	-0.98775
11727.03750	-0.45048
11723.17992	0.16758
11719.32234	0.24879
11715.46477	0.29250
11711.60719	0.97646
11707.74961	0.97646
11703.89203	0.97646
11700.03445	0.97646
11696.17687	-0.29756
11692.31930	-0.16182
11688.46172	0.54288
11684.60414	1.23951
11680.74656	1.23951
11676.88898	1.23951
11673.03141	1.23951
11669.17383	1.23951
11665.31625	-2.14294
11661.45867	-1.55889
11657.60109	0.94441
11653.74352	0.94441
11649.88594	0.94441
11646.02836	0.94441
11642.17078	0.94441
11638.31320	2.16729
11634.45562	0.77316
11630.59805	0.77316
11626.74047	0.77316
11622.88289	1.39181
11619.02531	1.17455
11615.16773	0.45829
11611.31016	0.62379
11607.45258	0.62379
11603.59500	0.62379
11599.73742	0.62379
11595.87984	-1.39015
11592.02227	-1.39015
11588.16469	2.58555
11584.30711	0.80329
11580.44953	0.47375
11576.59195	1.30159
11572.73437	1.20713
11568.87680	-0.25901
11565.01922	-0.24992
11561.16164	-1.19352
11557.30406	-1.19352
11553.44648	-1.19352
11549.58891	1.46705
11545.73133	1.28619
11541.87375	1.28619
11538.01617	1.28619
11534.15859	-1.89641
11530.30102	-0.21262
11526.44344	0.65312
11522.58586	0.60901
11518.72828	0.60901
11514.87070	0.60901
11511.01312	0.60901
11507.15555	0.60901
11503.29797	0.60901
11499.44039	1.81590
11495.58281	1.82476
11491.72523	4.36109
11487.86766	4.36109
11484.01008	4.36109
11480.15250	4.36109
11476.29492	4.36109
11472.43734	-0.11834
11468.57977	-1.00534
11464.72219	0.24471
11460.86461	1.90452
11457.00703	1.90452
11453.14945	1.90452
11449.29187	1.74424
11445.43430	2.14821
11441.57672	2.14821
11437.71914	2.14821
11433.86156	0.24548
11430.00398	0.24548
11426.14641	0.24548
11422.28883	-0.94227
11418.43125	-0.94227
11414.57367	-0.94227
11410.71609	3.02904
11406.85852	0.86901
11403.00094	-0.05613
11399.14336	-0.01676
11395.28578	0.02409
11391.42820	-0.27781
11387.57062	-0.27781
11383.71305	-0.27781
11379.85547	1.99986
11375.99789	1.99986
11372.14031	3.32535
11368.28273	4.83272
11364.42516	4.83272
11360.56758	4.83272
11356.71000	4.83272
11352.85242	5.34914
11348.99484	5.34914
11345.13727	5.34914
11341.27969	1.05458
11337.42211	-0.02578
11333.56453	-0.38049
11329.70695	-0.48322
11325.84937	-0.48322
11321.99180	-0.48322
11318.13422	1.02534
11314.27664	1.02534
11310.41906	1.02534
11306.56148	1.72819
11302.70391	0.71703
11298.84633	0.37450
11294.98875	0.20075
11291.13117	0.20075
11287.27359	0.20075
11283.41602	0.20075
11279.55844	0.20075
11275.70086	-0.92009
11271.84328	0.35508
11267.98570	-1.88917
11264.12812	-1.88917
11260.27055	-1.88917
11256.41297	-1.88917
11252.55539	0.09415
11248.69781	0.89955
11244.84023	0.89955
11240.98266	0.89955
11237.12508	0.89955
11233.26750	1.38325
11229.40992	1.38325
11225.55234	1.38325
11221.69477	0.60370
11217.83719	2.63605
11213.97961	2.63605
11210.12203	2.63605
11206.26445	0.06661
11202.40687	0.02801
11198.54930	0.07122
11194.69172	0.46169
11190.83414	0.46169
11186.97656	0.46169
11183.11898	-0.45557
11179.26141	1.63732
11175.40383	2.31921
11171.54625	2.31921
11167.68867	2.31921
11163.83109	2.31921
11159.97352	2.31921
11156.11594	0.34290
11152.25836	0.88002
11148.40078	0.00546
11144.54320	-0.22899
11140.68562	0.51498
11136.82805	0.51498
11132.97047	0.51498
11129.11289	0.51498
11125.25531	0.51498
11121.39773	0.51498
11117.54016	0.51498
11113.68258	0.51498
11109.82500	0.51498
11105.96742	-1.27625
11102.10984	-1.27625
11098.25227	-1.27625
11094.39469	2.80684
11090.53711	2.80684
11086.67953	2.80684
11082.82195	0.37456
11078.96437	0.59380
11075.10680	0.59380
11071.24922	1.38727
11067.39164	2.13308
11063.53406	1.19701
11059.67648	1.23181
11055.81891	3.02513
11051.96133	3.49716
11048.10375	0.43533
11044.24617	0.27584
11040.38859	0.62656
11036.53102	0.24960
11032.67344	-0.41395
11028.81586	-0.41395
11024.95828	-0.41395
11021.10070	0.85873
11017.24312	1.07623
11013.38555	1.07623
11009.52797	1.07623
11005.67039	0.76589
11001.81281	0.24569
10997.95523	0.40936
10994.09766	0.52073
10990.24008	0.60052
10986.38250	0.84141
10982.52492	1.25404
10978.66734	2.06667
10974.80977	1.12993
10970.95219	1.12993
10967.09461	1.12993
10963.23703	5.09198
10959.37945	5.09198
10955.52187	5.09198
10951.66430	0.17747
10947.80672	-0.36379
10943.94914	-0.36379
10940.09156	-0.36379
10936.23398	-0.36379
10932.37641	1.73331
10928.51883	0.29016
10924.66125	0.18757
10920.80367	1.12793
10916.94609	1.12793
10913.08852	2.20582
10909.23094	0.56133
10905.37336	-0.45551
10901.51578	-0.45551
10897.65820	-0.45551
10893.80062	-0.45551
10889.94305	-0.45551
10886.08547	-0.09617
10882.22789	-0.83992
10878.37031	0.60889
10874.51273	0.60889
10870.65516	2.14556
10866.79758	1.42756
10862.94000	1.42756
10859.08242	1.42756
10855.22484	0.24091
10851.36727	1.50422
10847.50969	0.69518
10843.65211	-0.74600
10839.79453	-0.74600
10835.93695	-0.74600
10832.07937	-0.74600
10828.22180	-0.74600
10824.36422	2.53254
10820.50664	2.53254
10816.64906	2.53254
10812.79148	2.53254
10808.93391	2.53254
10805.07633	2.53254
10801.21875	2.53254
10797.36117	2.53254
10793.50359	2.53254
10789.64602	0.97936
10785.78844	0.66004
10781.93086	0.39454
10778.07328	0.04721
10774.21570	0.04721
10770.35812	0.04721
10766.50055	0.04721
10762.64297	0.04721
10758.78539	-0.69153
10754.92781	-0.88918
10751.07023	-0.88918
10747.21266	0.82734
10743.35508	0.36552
10739.49750	-0.06370
10735.63992	1.34120
10731.78234	1.34120
10727.92477	1.34120
10724.06719	-0.47983
10720.20961	-0.17166
10716.35203	-0.17166
10712.49445	-0.17166
10708.63687	6.32710
10704.77930	0.66005
10700.92172	0.66005
10697.06414	0.66005
10693.20656	0.45519
10689.34898	-1.56178
10685.49141	-0.38467
10681.63383	0.67099
10677.77625	0.67099
10673.91867	0.67099
10670.06109	1.72721
10666.20352	1.72721
10662.34594	1.72721
10658.48836	0.82884
10654.63078	0.82884
10650.77320	0.82884
10646.91562	0.35593
10643.05805	1.13750
10639.20047	0.49719
10635.34289	-1.22759
10631.48531	-1.22759
10627.62773	-1.22759
10623.77016	3.00071
10619.91258	0.33183
10616.05500	-1.43168
10612.19742	-1.43168
10608.33984	-1.43168
10604.48227	-1.43168
10600.62469	0.51942
10596.76711	3.61692
10592.90953	7.38179
10589.05195	1.38280
10585.19437	-0.55973
10581.33680	-0.55973
10577.47922	0.09482
10573.62164	0.42567
10569.76406	0.26843
10565.90648	-0.21822
10562.04891	-0.21822
10558.19133	-0.21822
10554.33375	-0.21822
10550.47617	1.37514
10546.61859	1.49948
10542.76102	1.87274
10538.90344	1.87274
10535.04586	1.87274
10531.18828	1.87274
10527.33070	0.81136
10523.47312	0.66841
10519.61555	1.28968
10515.75797	1.28968
10511.90039	0.93542
10508.04281	0.39667
10504.18523	0.39667
10500.32766	0.39667
10496.47008	-1.81605
10492.61250	-0.71264
10488.75492	-1.21448
10484.89734	-1.21448
10481.03977	-1.21448
10477.18219	-1.21448
10473.32461	0.12129
10469.46703	1.03199
10465.60945	1.35596
10461.75187	-0.23508
10457.89430	-1.47334
10454.03672	-1.47334
10450.17914	-1.47334
10446.32156	0.02457
10442.46398	-1.10942
10438.60641	-0.75790
10434.74883	-0.75790
10430.89125	-0.75790
10427.03367	-0.60403
10423.17609	-1.22618
10419.31852	-1.22618
10415.46094	-1.22618
10411.60336	-1.22618
10407.74578	-1.22618
10403.88820	-1.22618
10400.03062	0.50692
10396.17305	0.45217
10392.31547	1.49846
10388.45789	1.49846
10384.60031	1.49846
10380.74273	1.49846
10376.88516	1.49846
10373.02758	1.49846
10369.17000	1.49846
10365.31242	1.49846
10361.45484	1.49846
10357.59727	1.49846
10353.73969	1.49846
10349.88211	1.49846
10346.02453	1.49846
10342.16695	1.49846
10338.30937	1.11866
10334.45180	-0.11175
10330.59422	-0.74790
10326.73664	-0.74790
10322.87906	-0.74790
10319.02148	-0.74790
10315.16391	-0.74790
10311.30633	0.71688
10307.44875	0.71688
10303.59117	0.71688
10299.73359	0.71688
10295.87602	1.93905
10292.01844	2.87028
10288.16086	0.47245
10284.30328	0.37473
10280.44570	1.24059
10276.58812	1.79118
10272.73055	1.79118
10268.87297	1.79118
10265.01539	1.79118
10261.15781	1.79118
10257.30023	1.79118
10253.44266	1.79118
10249.58508	1.79118
10245.72750	-0.72470
10241.86992	0.02408
10238.01234	-0.51635
10234.15477	2.50280
10230.29719	2.45644
10226.43961	-0.82690
10222.58203	-0.65552
10218.72445	0.31146
10214.86687	1.38011
10211.00930	2.07174
10207.15172	2.07174
10203.29414	0.21964
10199.43656	-0.05798
10195.57898	-0.05016
10191.72141	0.73194
10187.86383	0.96680
10184.00625	0.87654
10180.14867	1.03100
10176.29109	0.27641
10172.43352	0.59472
10168.57594	0.73281
10164.71836	0.48835
10160.86078	1.11202
10157.00320	3.02332
10153.14562	0.80691
10149.28805	0.08811
10145.43047	-0.47323
10141.57289	0.47986
10137.71531	0.47986
10133.85773	0.47986
10130.00016	2.57909
10126.14258	2.57909
10122.28500	2.57909
10118.42742	2.57909
10114.56984	2.57909
10110.71227	1.93566
10106.85469	0.53960
10102.99711	0.57323
10099.13953	5.77690
10095.28195	5.77690
10091.42437	5.77690
10087.56680	-0.03365
10083.70922	-0.03365
10079.85164	-0.03365
10075.99406	0.46330
10072.13648	0.27844
10068.27891	-0.06031
10064.42133	0.40014
10060.56375	3.39697
10056.70617	1.94625
10052.84859	0.45378
10048.99102	0.42510
10045.13344	0.64846
10041.27586	0.78356
10037.41828	0.31020
10033.56070	0.31020
10029.70312	0.31020
10025.84555	-3.00778
10021.98797	-2.01881
10018.13039	1.33737
10014.27281	2.62330
10010.41523	2.27233
10006.55766	0.75350
10002.70008	0.38300
9998.84250	-0.11707
9994.98492	-0.37928
9991.12734	0.09898
9987.26977	0.93629
9983.41219	0.93629
9979.55461	1.48331
9975.69703	0.65793
9971.83945	0.65793
9967.98187	0.65793
9964.12430	0.65793
9960.26672	-3.07891
9956.40914	-2.18857
9952.55156	0.08965
9948.69398	1.06957
9944.83641	1.37323
9940.97883	-0.82984
9937.12125	-1.95532
9933.26367	-1.95532
9929.40609	-1.95532
9925.54852	-1.95532
9921.69094	-0.45990
9917.83336	0.38025
9913.97578	0.60018
9910.11820	0.97792
9906.26062	0.97792
9902.40305	0.97792
9898.54547	0.36159
9894.68789	0.68631
9890.83031	1.77481
9886.97273	1.77481
9883.11516	1.77481
9879.25758	1.77481
9875.40000	-3.63627
9871.54242	0.01757
9867.68484	0.01757
9863.82727	0.01757
9859.96969	0.10870
9856.11211	0.35610
9852.25453	0.45432
9848.39695	0.45432
9844.53937	0.45432
9840.68180	0.45432
9836.82422	-0.49453
9832.96664	-1.29429
9829.10906	-0.96479
9825.25148	1.73720
9821.39391	1.39765
9817.53633	1.50704
9813.67875	1.45920
9809.82117	1.72065
9805.96359	1.72065
9802.10602	0.40602
9798.24844	-0.11634
9794.39086	0.76569
9790.53328	0.76569
9786.67570	1.60833
9782.81812	1.03714
9778.96055	1.62377
9775.10297	1.62377
9771.24539	1.62377
9767.38781	1.62377
9763.53023	1.62377
9759.67266	1.62377
9755.81508	1.62377
9751.95750	1.62377
9748.09992	4.72148
9744.24234	4.72148
9740.38477	0.77950
9736.52719	0.39794
9732.66961	0.39794
9728.81203	0.39794
9724.95445	0.39794
9721.09687	0.39794
9717.23930	0.39794
9713.38172	0.39794
9709.52414	-0.46858
9705.66656	0.71270
9701.80898	1.81519
9697.95141	2.82045
9694.09383	0.70223
9690.23625	0.78108
9686.37867	0.96320
9682.52109	0.07096
9678.66352	0.10901
9674.80594	3.11908
9670.94836	3.68103
9667.09078	3.68103
9663.23320	3.68103
9659.37562	1.73649
9655.51805	0.77347
9651.66047	0.13195
9647.80289	0.31497
9643.94531	0.90929
9640.08773	0.64807
9636.23016	-0.15381
9632.37258	-0.92376
9628.51500	-0.92376
9624.65742	-0.92376
9620.79984	-1.39152
9616.94227	-0.66771
9613.08469	-0.76251
9609.22711	-0.76251
9605.36953	-0.76251
9601.51195	-0.76251
9597.65437	-0.76251
9593.79680	0.51611
9589.93922	-0.62700
9586.08164	-0.91439
9582.22406	0.17299
9578.36648	1.19613
9574.50891	0.42035
9570.65133	0.42153
9566.79375	0.42153
9562.93617	0.42153
9559.07859	0.42153
9555.22102	0.42153
9551.36344	0.42153
9547.50586	0.42153
9543.64828	0.42153
9539.79070	1.06032
9535.93312	0.90415
9532.07555	-0.14126
9528.21797	-0.49393
9524.36039	-0.49393
9520.50281	-0.49393
9516.64523	-0.49393
9512.78766	1.70524
9508.93008	0.44168
9505.07250	-0.53166
9501.21492	-0.88750
9497.35734	-1.47025
9493.49977	-1.96684
9489.64219	-1.96684
9485.78461	-1.96684
9481.92703	-1.96684
9478.06945	-1.96684
9474.21187	0.69379
9470.35430	0.59438
9466.49672	0.38929
9462.63914	0.62134
9458.78156	0.62134
9454.92398	0.62134
9451.06641	-0.48440
9447.20883	-0.19994
9443.35125	-0.19994
9439.49367	-0.19994
9435.63609	-0.19994
9431.77852	-0.19994
9427.92094	-0.19994
9424.06336	0.95600
9420.20578	0.98711
9416.34820	1.02266
9412.49062	0.81650
9408.63305	0.38938
9404.77547	0.22667
9400.91789	0.52651
9397.06031	2.94572
9393.20273	2.94572
9389.34516	1.12320
9385.48758	0.08503
9381.63000	0.51205
9377.77242	1.70830
9373.91484	0.74749
9370.05727	0.44107
9366.19969	0.44107
9362.34211	0.44107
9358.48453	0.86488
9354.62695	0.64207
9350.76937	0.49574
9346.91180	0.24766
9343.05422	0.56415
9339.19664	0.72708
9335.33906	0.75046
9331.48148	1.50170
9327.62391	1.93209
9323.76633	0.78649
9319.90875	0.01396
9316.05117	0.07034
9312.19359	0.73165
9308.33602	1.48378
9304.47844	1.11027
9300.62086	3.45435
9296.76328	3.45435
9292.90570	1.72860
9289.04812	0.59773
9285.19055	-0.44576
9281.33297	-0.78207
9277.47539	0.74384
9273.61781	0.85500
9269.76023	0.22865
9265.90266	0.53862
9262.04508	2.48432
9258.18750	-0.18261
9254.32992	-0.54830
9250.47234	0.23353
9246.61477	1.38816
9242.75719	1.38816
9238.89961	-0.84323
9235.04203	0.10211
9231.18445	0.10211
9227.32687	0.10211
9223.46930	0.10211
9219.61172	2.02114
9215.75414	0.86126
9211.89656	0.90255
9208.03898	0.72625
9204.18141	0.13207
9200.32383	-0.26468
9196.46625	0.54996
9192.60867	0.49702
9188.75109	0.22567
9184.89352	0.28375
9181.03594	0.36501
9177.17836	0.52277
9173.32078	1.18766
9169.46320	1.29569
9165.60562	-1.30930
9161.74805	-1.51286
9157.89047	0.38642
9154.03289	0.03975
9150.17531	-0.61365
9146.31773	0.94904
9142.46016	0.73703
9138.60258	0.23326
9134.74500	0.23326
9130.88742	-0.52914
9127.02984	-0.29843
9123.17227	-0.30782
9119.31469	-0.34394
9115.45711	-0.34394
9111.59953	-0.34394
9107.74195	0.27822
9103.88437	0.31261
9100.02680	0.12807
9096.16922	-0.22264
9092.31164	-0.91508
9088.45406	-0.91508
9084.59648	0.36811
9080.73891	0.56236
9076.88133	1.11122
9073.02375	0.95965
9069.16617	-0.01638
9065.30859	-0.08266
9061.45102	-0.08266
9057.59344	1.24806
9053.73586	0.06514
9049.87828	0.16301
9046.02070	0.16301
9042.16312	0.16301
9038.30555	0.16301
9034.44797	0.16301
9030.59039	0.40446
9026.73281	-0.43318
9022.87523	-0.51912
9019.01766	-0.23113
9015.16008	-0.52536
9011.30250	-0.20695
9007.44492	1.11124
9003.58734	4.18663
8999.72977	3.93645
8995.87219	2.02537
8992.01461	0.90373
8988.15703	0.66681
8984.29945	0.42502
8980.44187	0.11258
8976.58430	-0.08723
8972.72672	0.09318
8968.86914	-0.17707
8965.01156	-0.58709
8961.15398	0.26943
8957.29641	0.68662
8953.43883	2.31781
8949.58125	2.31781
8945.72367	4.23588
8941.86609	4.29658
8938.00852	1.09593
8934.15094	0.64635
8930.29336	0.84920
8926.43578	1.11820
8922.57820	2.16582
8918.72062	5.01639
8914.86305	5.01639
8911.00547	-0.95507
8907.14789	-0.24348
8903.29031	-1.16419
8899.43273	-2.19938
8895.57516	-0.85173
8891.71758	-0.10735
8887.86000	0.53128
8884.00242	1.33946
8880.14484	1.55344
8876.28727	3.43915
8872.42969	4.46792
8868.57211	4.46792
8864.71453	4.46792
8860.85695	0.56810
8856.99937	0.54355
8853.14180	0.70289
8849.28422	1.15105
8845.42664	1.15483
8841.56906	0.54671
8837.71148	0.54671
8833.85391	0.54671
8829.99633	0.54671
8826.13875	0.48585
8822.28117	0.24939
8818.42359	0.40570
8814.56602	0.87968
8810.70844	1.74258
8806.85086	3.57130
8802.99328	0.45054
8799.13570	0.16019
8795.27812	0.27058
8791.42055	-0.08752
8787.56297	0.05256
8783.70539	0.47147
8779.84781	-1.84840
8775.99023	-0.28988
8772.13266	-0.01390
8768.27508	0.13844
8764.41750	0.37057
8760.55992	0.74619
8756.70234	2.16953
8752.84477	3.16737
8748.98719	-0.22795
8745.12961	-0.69758
8741.27203	-1.12766
8737.41445	0.24601
8733.55687	1.03875
8729.69930	0.94987
8725.84172	0.03529
8721.98414	1.17310
8718.12656	0.51803
8714.26898	0.27040
8710.41141	1.03277
8706.55383	1.03277
8702.69625	0.76375
8698.83867	0.46061
8694.98109	0.40727
8691.12352	0.72657
8687.26594	0.81704
8683.40836	0.69678
8679.55078	0.73997
8675.69320	0.89612
8671.83562	1.06166
8667.97805	0.89999
8664.12047	0.67021
8660.26289	0.37606
8656.40531	0.36466
8652.54773	0.64943
8648.69016	0.46919
8644.83258	0.13557
8640.97500	-0.11548
8637.11742	-0.62850
8633.25984	-1.37780
8629.40227	0.73174
8625.54469	0.73174
8621.68711	0.73174
8617.82953	0.42991
8613.97195	-0.37938
8610.11437	-0.52392
8606.25680	-0.67543
8602.39922	-0.93097
8598.54164	-0.60927
8594.68406	-0.03322
8590.82648	-0.36943
8586.96891	-1.01095
8583.11133	-0.89774
8579.25375	-0.71167
8575.39617	-0.64060
8571.53859	-0.18622
8567.68102	-0.13993
8563.82344	-0.57309
8559.96586	-0.56330
8556.10828	-0.53121
8552.25070	0.14172
8548.39312	0.55472
8544.53555	0.75476
8540.67797	0.33911
8536.82039	1.18524
8532.96281	2.61438
8529.10523	0.47413
8525.24766	0.12545
8521.39008	0.54750
8517.53250	3.01018
8513.67492	0.79379
8509.81734	0.79379
8505.95977	0.79379
8502.10219	0.79379
8498.24461	0.79379
8494.38703	0.79379
8490.52945	0.78133
8486.67187	0.60865
8482.81430	0.46452
8478.95672	1.21659
8475.09914	1.21659
8471.24156	0.93855
8467.38398	-0.05694
8463.52641	-0.04896
8459.66883	0.06453
8455.81125	0.24250
8451.95367	0.23271
8448.09609	0.23271
8444.23852	0.23271
8440.38094	0.69701
8436.52336	0.53212
8432.66578	0.61171
8428.80820	0.86343
8424.95062	1.12191
8421.09305	1.12191
8417.23547	1.55809
8413.37789	1.33839
8409.52031	0.80739
8405.66273	-0.12843
8401.80516	0.42479
8397.94758	0.56267
8394.09000	0.95197
8390.23242	0.95197
8386.37484	0.95197
8382.51727	2.20179
8378.65969	1.79966
8374.80211	0.71107
8370.94453	-0.40051
8367.08695	-0.82094
8363.22937	-0.51893
8359.37180	-0.10612
8355.51422	0.04579
8351.65664	0.11511
8347.79906	0.11511
8343.94148	0.11511
8340.08391	2.78497
8336.22633	0.44912
8332.36875	-0.17744
8328.51117	-0.56274
8324.65359	0.93419
8320.79602	0.93419
8316.93844	0.93419
8313.08086	0.93419
8309.22328	0.93419
8305.36570	0.93419
8301.50812	0.93419
8297.65055	0.93419
8293.79297	0.93419
8289.93539	0.93419
8286.07781	0.93419
8282.22023	0.93419
8278.36266	0.93419
8274.50508	0.38611
8270.64750	0.23825
8266.78992	0.74607
8262.93234	1.40974
8259.07477	2.96857
8255.21719	2.85501
8251.35961	1.42236
8247.50203	0.75356
8243.64445	0.42615
8239.78687	0.32535
8235.92930	0.15488
8232.07172	-0.42600
8228.21414	-0.42600
8224.35656	0.37583
8220.49898	-0.31479
8216.64141	-0.52220
8212.78383	0.15638
8208.92625	1.30290
8205.06867	0.45253
8201.21109	0.19457
8197.35352	-0.01702
8193.49594	-0.68486
8189.63836	-0.68486
8185.78078	0.17324
8181.92320	0.50322
8178.06562	0.62847
8174.20805	0.29363
8170.35047	-0.01114
8166.49289	-0.01114
8162.63531	-0.01114
8158.77773	2.00908
8154.92016	-0.45044
8151.06258	-0.88967
8147.20500	-0.01516
8143.34742	0.79683
8139.48984	0.39354
8135.63227	0.35828
8131.77469	0.78343
8127.91711	0.78343
8124.05953	0.59454
8120.20195	0.05499
8116.34437	0.05499
8112.48680	0.05499
8108.62922	-1.40817
8104.77164	-0.31629
8100.91406	0.09755
8097.05648	0.34065
8093.19891	0.44648
8089.34133	0.51828
8085.48375	0.07184
8081.62617	0.32656
8077.76859	2.07080
8073.91102	1.53224
8070.05344	1.53224
8066.19586	1.53224
8062.33828	1.04140
8058.48070	0.04669
8054.62312	0.16894
8050.76555	0.99992
8046.90797	1.28784
8043.05039	0.96277
8039.19281	0.62158
8035.33523	-0.42457
8031.47766	-1.00538
8027.62008	-0.15673
8023.76250	-0.05076
8019.90492	1.41257
8016.04734	-1.09435
8012.18977	-2.19997
8008.33219	0.28904
8004.47461	0.30409
8000.61703	0.44776
7996.75945	0.81966
7992.90187	0.89251
7989.04430	0.95598
7985.18672	0.69172
7981.32914	0.21664
7977.47156	0.01400
7973.61398	-0.23551
7969.75641	-0.54462
7965.89883	0.31867
7962.04125	0.43604
7958.18367	-0.14565
7954.32609	0.13446
7950.46852	0.56886
7946.61094	0.53816
7942.75336	0.20555
7938.89578	-0.26278
7935.03820	0.21876
7931.18062	0.73574
7927.32305	1.25516
7923.46547	0.25046
7919.60789	-0.13186
7915.75031	0.36556
7911.89273	0.57178
7908.03516	0.67155
7904.17758	1.07224
7900.32000	1.58430
7896.46242	1.58430
7892.60484	0.74797
7888.74727	1.25156
7884.88969	1.25156
7881.03211	0.26255
7877.17453	0.35238
7873.31695	0.86577
7869.45937	2.53135
7865.60180	3.26568
7861.74422	1.26444
7857.88664	0.93640
7854.02906	0.37661
7850.17148	-0.15016
7846.31391	0.17585
7842.45633	0.67713
7838.59875	0.60596
7834.74117	0.39260
7830.88359	0.51731
7827.02602	0.79198
7823.16844	0.60397
7819.31086	0.47100
7815.45328	0.56741
7811.59570	0.50208
7807.73812	0.70236
7803.88055	0.93470
7800.02297	0.83663
7796.16539	0.45589
7792.30781	0.07979
7788.45023	0.20693
7784.59266	0.57620
7780.73508	0.72917
7776.87750	0.92041
7773.01992	0.60387
7769.16234	0.41567
7765.30477	0.53030
7761.44719	0.24763
7757.58961	0.10081
7753.73203	0.42008
7749.87445	0.71788
7746.01687	0.61853
7742.15930	0.30935
7738.30172	0.36158
7734.44414	0.51992
7730.58656	0.24662
7726.72898	0.16732
7722.87141	0.48816
7719.01383	0.61490
7715.15625	0.63135
7711.29867	0.66070
7707.44109	0.77903
7703.58352	0.83681
7699.72594	0.36355
7695.86836	0.44821
7692.01078	0.65129
7688.15320	0.38062
7684.29562	0.38231
7680.43805	0.52433
7676.58047	0.55179
7672.72289	0.60531
7668.86531	0.49236
7665.00773	0.41484
7661.15016	0.40830
7657.29258	0.29057
7653.43500	0.29796
7649.57742	0.53097
7645.71984	0.50082
7641.86227	0.20034
7638.00469	0.18270
7634.14711	0.50237
7630.28953	0.70344
7626.43195	0.58153
7622.57437	0.47485
7618.71680	0.42681
7614.85922	0.52123
7611.00164	0.73982
7607.14406	0.64883
7603.28648	0.47805
7599.42891	0.55960
7595.57133	0.56973
7591.71375	0.50723
7587.85617	0.40935
7583.99859	0.25750
7580.14102	0.27678
7576.28344	0.35753
7572.42586	0.32057
7568.56828	0.32290
7564.71070	0.41339
7560.85312	0.41207
7556.99555	0.39403
7553.13797	0.56934
7549.28039	0.69797
7545.42281	0.56515
7541.56523	0.48404
7537.70766	0.52482
7533.85008	0.59119
7529.99250	0.60898
7526.13492	0.56324
7522.27734	0.48366
7518.41977	0.36809
7514.56219	0.47157
7510.70461	0.72688
7506.84703	0.66984
7502.98945	0.45604
7499.13187	0.45167
7495.27430	0.51061
7491.41672	0.44552
7487.55914	0.35968
7483.70156	0.53930
7479.84398	0.68924
7475.98641	0.58631
7472.12883	0.48903
7468.27125	0.41100
7464.41367	0.36301
7460.55609	0.42334
7456.69852	0.54886
7452.84094	0.56717
7448.98336	0.51165
7445.12578	0.58387
7441.26820	0.58756
7437.41062	0.46333
7433.55305	0.38400
7429.69547	0.41691
7425.83789	0.52882
7421.98031	0.65680
7418.12273	0.70237
7414.26516	0.62391
7410.40758	0.56442
7406.55000	0.54663
7402.69242	0.53723
7398.83484	0.57243
7394.97727	0.53247
7391.11969	0.38974
7387.26211	0.31861
7383.40453	0.42361
7379.54695	0.56724
7375.68937	0.59624
7371.83180	0.54617
7367.97422	0.49537
7364.11664	0.51507
7360.25906	0.47168
7356.40148	0.43305
7352.54391	0.50165
7348.68633	0.50851
7344.82875	0.47764
7340.97117	0.48473
7337.11359	0.46808
7333.25602	0.45553
7329.39844	0.50362
7325.54086	0.53619
7321.68328	0.46800
7317.82570	0.45184
7313.96812	0.53895
7310.11055	0.56655
7306.25297	0.47690
7302.39539	0.45823
7298.53781	0.51947
7294.68023	0.53066
7290.82266	0.50616
7286.96508	0.50006
7283.10750	0.46806
7279.24992	0.46421
7275.39234	0.54561
7271.53477	0.54046
7267.67719	0.41162
7263.81961	0.45107
7259.96203	0.62241
7256.10445	0.67534
7252.24687	0.52484
7248.38930	0.41939
7244.53172	0.47774
7240.67414	0.62255
7236.81656	0.61129
7232.95898	0.47949
7229.10141	0.47685
7225.24383	0.61002
7221.38625	0.58320
7217.52867	0.48362
7213.67109	0.52741
7209.81352	0.57437
7205.95594	0.53300
7202.09836	0.46190
7198.24078	0.50462
7194.38320	0.55584
7190.52562	0.49033
7186.66805	0.51935
7182.81047	0.63844
7178.95289	0.55247
7175.09531	0.46343
7171.23773	0.49821
7167.38016	0.50686
7163.52258	0.42178
7159.66500	0.37339
7155.80742	0.36964
7151.94984	0.44602
7148.09227	0.61034
7144.23469	0.62764
7140.37711	0.50256
7136.51953	0.50001
7132.66195	0.51273
7128.80437	0.42783
7124.94680	0.41612
7121.08922	0.49986
7117.23164	0.47918
7113.37406	0.37353
7109.51648	0.36209
7105.65891	0.45736
7101.80133	0.47227
7097.94375	0.43688
7094.08617	0.48943
7090.22859	0.51655
7086.37102	0.46100
7082.51344	0.41488
7078.65586	0.42320
7074.79828	0.43704
7070.94070	0.44258
7067.08312	0.48764
7063.22555	0.53477
7059.36797	0.51658
7055.51039	0.43844
7051.65281	0.41941
7047.79523	0.51238
7043.93766	0.54074
7040.08008	0.49063
7036.22250	0.47414
7032.36492	0.47117
7028.50734	0.47740
7024.64977	0.48974
7020.79219	0.47657
7016.93461	0.50725
7013.07703	0.53480
7009.21945	0.48107
7005.36187	0.47731
7001.50430	0.53812
6997.64672	0.54342
6993.78914	0.54984
6989.93156	0.58648
6986.07398	0.56414
6982.21641	0.50954
6978.35883	0.50485
6974.50125	0.51265
6970.64367	0.49326
6966.78609	0.47820
6962.92852	0.48738
6959.07094	0.51334
6955.21336	0.52066
6951.35578	0.48644
6947.49820	0.45853
6943.64062	0.49101
6939.78305	0.53250
6935.92547	0.53315
6932.06789	0.53592
6928.21031	0.55189
6924.35273	0.55181
6920.49516	0.51803
6916.63758	0.49386
6912.78000	0.51141
6908.92242	0.50587
6905.06484	0.49239
6901.20727	0.52585
6897.34969	0.54049
6893.49211	0.52142
6889.63453	0.53520
6885.77695	0.57192
6881.91937	0.57399
6878.06180	0.53077
6874.20422	0.49349
6870.34664	0.49777
6866.48906	0.49924
6862.63148	0.46571
6858.77391	0.46109
6854.91633	0.47673
6851.05875	0.45621
6847.20117	0.46708
6843.34359	0.51888
6839.48602	0.54234
6835.62844	0.54499
6831.77086	0.55102
6827.91328	0.52758
6824.05570	0.47618
6820.19812	0.49719
6816.34055	0.56922
6812.48297	0.54610
6808.62539	0.48801
6804.76781	0.48053
6800.91023	0.48218
6797.05266	0.46220
6793.19508	0.46034
6789.33750	0.49850
6785.47992	0.52790
6781.62234	0.53632
6777.76477	0.51671
6773.90719	0.48549
6770.04961	0.50209
6766.19203	0.53798
6762.33445	0.53886
6758.47687	0.53290
6754.61930	0.51928
6750.76172	0.48525
6746.90414	0.49391
6743.04656	0.52820
6739.18898	0.52671
6735.33141	0.52576
6731.47383	0.51458
6727.61625	0.49922
6723.75867	0.50463
6719.90109	0.49926
6716.04352	0.51848
6712.18594	0.55863
6708.32836	0.55584
6704.47078	0.53321
6700.61320	0.51919
6696.75562	0.52813
6692.89805	0.53683
6689.04047	0.50589
6685.18289	0.50605
6681.32531	0.53932
6677.46773	0.54598
6673.61016	0.56031
6669.75258	0.57180
6665.89500	0.55099
6662.03742	0.53387
6658.17984	0.55043
6654.32227	0.57304
6650.46469	0.54649
6646.60711	0.51357
6642.74953	0.50153
6638.89195	0.49699
6635.03437	0.52481
6631.17680	0.53719
6627.31922	0.53027
6623.46164	0.52745
6619.60406	0.49853
6615.74648	0.50369
6611.88891	0.54623
6608.03133	0.55938
6604.17375	0.56916
6600.31617	0.56603
6596.45859	0.51148
6592.60102	0.47683
6588.74344	0.47895
6584.88586	0.48276
6581.02828	0.51008
6577.17070	0.51401
6573.31312	0.47572
6569.45555	0.47925
6565.59797	0.50939
6561.74039	0.52519
6557.88281	0.52815
6554.02523	0.51389
6550.16766	0.51231
6546.31008	0.52606
6542.45250	0.53020
6538.59492	0.53647
6534.73734	0.53461
6530.87977	0.50839
6527.02219	0.50427
6523.16461	0.51207
6519.30703	0.51295
6515.44945	0.53781
6511.59187	0.53367
6507.73430	0.51701
6503.87672	0.53481
6500.01914	0.51922
6496.16156	0.48771
6492.30398	0.49815
6488.44641	0.52853
6484.58883	0.53638
6480.73125	0.51494
6476.87367	0.49978
6473.01609	0.49850
6469.15852	0.50548
6465.30094	0.52406
6461.44336	0.54025
6457.58578	0.54588
6453.72820	0.54552
6449.87062	0.53797
6446.01305	0.53774
6442.15547	0.55461
6438.29789	0.55379
6434.44031	0.53699
6430.58273	0.54078
6426.72516	0.53327
6422.86758	0.49635
6419.01000	0.48577
6415.15242	0.51396
6411.29484	0.54646
6407.43727	0.55979
6403.57969	0.55399
6399.72211	0.56066
6395.86453	0.55823
6392.00695	0.50966
6388.14937	0.49573
6384.29180	0.53053
6380.43422	0.52722
6376.57664	0.52219
6372.71906	0.54885
6368.86148	0.55032
6365.00391	0.53624
6361.14633	0.52504
6357.28875	0.50230
6353.43117	0.49440
6349.57359	0.50895
6345.71602	0.51787
6341.85844	0.52723
6338.00086	0.52965
6334.14328	0.51201
6330.28570	0.51099
6326.42812	0.51948
6322.57055	0.51622
6318.71297	0.53039
6314.85539	0.53819
6310.99781	0.51341
6307.14023	0.50170
6303.28266	0.51345
6299.42508	0.51724
6295.56750	0.51736
6291.70992	0.52821
6287.85234	0.53507
6283.99477	0.53476
6280.13719	0.54337
6276.27961	0.55127
6272.42203	0.53396
6268.56445	0.51315
6264.70687	0.51665
6260.84930	0.51822
6256.99172	0.51696
6253.13414	0.53303
6249.27656	0.53250
6245.41898	0.51242
6241.56141	0.51578
6237.70383	0.53138
6233.84625	0.52767
6229.98867	0.52268
6226.13109	0.52359
6222.27352	0.51505
6218.41594	0.51504
6214.55836	0.52669
6210.70078	0.53126
6206.84320	0.53796
6202.98562	0.55797
6199.12805	0.56158
6195.27047	0.53574
6191.41289	0.51708
6187.55531	0.51707
6183.69773	0.53563
6179.84016	0.55923
6175.98258	0.55010
6172.12500	0.52524
6168.26742	0.51705
6164.40984	0.52428
6160.55227	0.53940
6156.69469	0.54066
6152.83711	0.53220
6148.97953	0.52342
6145.12195	0.51393
6141.26437	0.52661
6137.40680	0.54281
6133.54922	0.53659
6129.69164	0.53318
6125.83406	0.51617
6121.97648	0.49939
6118.11891	0.51729
6114.26133	0.51833
6110.40375	0.50511
6106.54617	0.52069
6102.68859	0.53412
6098.83102	0.53401
6094.97344	0.52805
6091.11586	0.52048
6087.25828	0.52839
6083.40070	0.52501
6079.54312	0.49646
6075.68555	0.49252
6071.82797	0.51921
6067.97039	0.53080
6064.11281	0.52319
6060.25523	0.52339
6056.39766	0.52709
6052.54008	0.51319
6048.68250	0.49779
6044.82492	0.50514
6040.96734	0.52084
6037.10977	0.52620
6033.25219	0.52898
6029.39461	0.53881
6025.53703	0.53584
6021.67945	0.51453
6017.82187	0.50685
6013.96430	0.51991
6010.10672	0.52489
6006.24914	0.50890
6002.39156	0.50520
5998.53398	0.52133
5994.67641	0.52432
5990.81883	0.52001
5986.96125	0.52361
5983.10367	0.52469
5979.24609	0.51871
5975.38852	0.51811
5971.53094	0.52379
5967.67336	0.52913
5963.81578	0.54272
5959.95820	0.54172
5956.10062	0.51832
5952.24305	0.50567
5948.38547	0.50788
5944.52789	0.51968
5940.67031	0.52886
5936.81273	0.52884
5932.95516	0.53468
5929.09758	0.53199
5925.24000	0.51809
5921.38242	0.51880
5917.52484	0.52694
5913.66727	0.52609
5909.80969	0.52005
5905.95211	0.52148
5902.09453	0.53806
5898.23695	0.54113
5894.37937	0.52775
5890.52180	0.53114
5886.66422	0.53326
5882.80664	0.53537
5878.94906	0.54536
5875.09148	0.54123
5871.23391	0.54385
5867.37633	0.54553
5863.51875	0.52829
5859.66117	0.52021
5855.80359	0.52842
5851.94602	0.54132
5848.08844	0.53607
5844.23086	0.52136
5840.37328	0.51717
5836.51570	0.51674
5832.65812	0.52445
5828.80055	0.52637
5824.94297	0.52976
5821.08539	0.54244
5817.22781	0.52647
5813.37023	0.51047
5809.51266	0.51833
5805.65508	0.51507
5801.79750	0.51261
5797.93992	0.52765
5794.08234	0.53887
5790.22477	0.53248
5786.36719	0.52255
5782.50961	0.52534
5778.65203	0.52839
5774.79445	0.52339
5770.93687	0.51489
5767.07930	0.50991
5763.22172	0.51786
5759.36414	0.52274
5755.50656	0.51453
5751.64898	0.51340
5747.79141	0.52050
5743.93383	0.52349
5740.07625	0.52342
5736.21867	0.52827
5732.36109	0.53448
5728.50352	0.52960
5724.64594	0.52223
5720.78836	0.52093
5716.93078	0.51857
5713.07320	0.51944
5709.21562	0.52597
5705.35805	0.53228
5701.50047	0.53575
5697.64289	0.53685
5693.78531	0.53354
5689.92773	0.52654
5686.07016	0.53275
5682.21258	0.54488
5678.35500	0.53856
5674.49742	0.52763
5670.63984	0.52709
5666.78227	0.53227
5662.92469	0.53454
5659.06711	0.52656
5655.20953	0.51907
5651.35195	0.52281
5647.49437	0.53440
5643.63680	0.53780
5639.77922	0.52251
5635.92164	0.51407
5632.06406	0.52678
5628.20648	0.53154
5624.34891	0.52913
5620.49133	0.53804
5616.63375	0.53869
5612.77617	0.53136
5608.91859	0.53135
5605.06102	0.52948
5601.20344	0.52321
5597.34586	0.51867
5593.48828	0.51880
5589.63070	0.52185
5585.77312	0.53267
5581.91555	0.54621
5578.05797	0.53502
5574.20039	0.51697
5570.34281	0.52114
5566.48523	0.52702
5562.62766	0.52140
5558.77008	0.51757
5554.91250	0.52080
5551.05492	0.52841
5547.19734	0.53328
5543.33977	0.53035
5539.48219	0.53225
5535.62461	0.54285
5531.76703	0.54511
5527.90945	0.53390
5524.05187	0.51972
5520.19430	0.51782
5516.33672	0.52572
5512.47914	0.53265
5508.62156	0.53906
5504.76398	0.53547
5500.90641	0.52569
5497.04883	0.52437
5493.19125	0.52685
5489.33367	0.52480
5485.47609	0.52319
5481.61852	0.52422
5477.76094	0.52563
5473.90336	0.53382
5470.04578	0.53894
5466.18820	0.53514
5462.33062	0.53539
5458.47305	0.52948
5454.61547	0.52348
5450.75789	0.53116
5446.90031	0.53178
5443.04273	0.52799
5439.18516	0.52974
5435.32758	0.52643
5431.47000	0.52672
5427.61242	0.52885
5423.75484	0.52332
5419.89727	0.51673
5416.03969	0.51247
5412.18211	0.51708
5408.32453	0.52666
5404.46695	0.53039
5400.60937	0.53355
5396.75180	0.53384
5392.89422	0.52473
5389.03664	0.52402
5385.17906	0.53681
5381.32148	0.54323
5377.46391	0.54028
5373.60633	0.53209
5369.74875	0.52980
5365.89117	0.53654
5362.03359	0.53215
5358.17602	0.52607
5354.31844	0.52854
5350.46086	0.52129
5346.60328	0.51926
5342.74570	0.53209
5338.88812	0.53634
5335.03055	0.53005
5331.17297	0.52999
5327.31539	0.53546
5323.45781	0.52807
5319.60023	0.51634
5315.74266	0.51742
5311.88508	0.52497
5308.02750	0.53352
5304.16992	0.53832
5300.31234	0.53382
5296.45477	0.52599
5292.59719	0.52581
5288.73961	0.53610
5284.88203	0.54093
5281.02445	0.53804
5277.16687	0.53896
5273.30930	0.53981
5269.45172	0.53519
5265.59414	0.52963
5261.73656	0.53037
5257.87898	0.53400
5254.02141	0.53560
5250.16383	0.53543
5246.30625	0.53249
5242.44867	0.53179
5238.59109	0.53388
5234.73352	0.53302
5230.87594	0.53029
5227.01836	0.52882
5223.16078	0.52782
5219.30320	0.52418
5215.44562	0.52329
5211.58805	0.52870
5207.73047	0.53248
5203.87289	0.53627
5200.01531	0.53946
5196.15773	0.52812
5192.30016	0.51689
5188.44258	0.52585
5184.58500	0.53965
5180.72742	0.54143
5176.86984	0.53565
5173.01227	0.52976
5169.15469	0.52896
5165.29711	0.52892
5161.43953	0.53117
5157.58195	0.53802
5153.72437	0.53689
5149.86680	0.53188
5146.00922	0.53248
5142.15164	0.53271
5138.29406	0.53801
5134.43648	0.54301
5130.57891	0.53415
5126.72133	0.52965
5122.86375	0.53263
5119.00617	0.52969
5115.14859	0.53108
5111.29102	0.53722
5107.43344	0.53924
5103.57586	0.53886
5099.71828	0.54016
5095.86070	0.54312
5092.00312	0.54228
5088.14555	0.54118
5084.28797	0.54026
5080.43039	0.53511
5076.57281	0.53255
5072.71523	0.53168
5068.85766	0.53029
5065.00008	0.53369
5061.14250	0.53508
5057.28492	0.53068
5053.42734	0.53291
5049.56977	0.53908
5045.71219	0.53830
5041.85461	0.53779
5037.99703	0.53644
5034.13945	0.53343
5030.28187	0.54053
5026.42430	0.54697
5022.56672	0.54450
5018.70914	0.54410
5014.85156	0.54651
5010.99398	0.54546
5007.13641	0.53827
5003.27883	0.53406
4999.42125	0.53644
4995.56367	0.53585
4991.70609	0.53510
4987.84852	0.53575
4983.99094	0.53729
4980.13336	0.54365
4976.27578	0.54592
4972.41820	0.54054
4968.56062	0.53565
4964.70305	0.53661
4960.84547	0.54030
4956.98789	0.53767
4953.13031	0.53175
4949.27273	0.52848
4945.41516	0.52949
4941.55758	0.53438
4937.70000	0.53699
4933.84242	0.54023
4929.98484	0.54371
4926.12727	0.54134
4922.26969	0.54008
4918.41211	0.53929
4914.55453	0.53499
4910.69695	0.53466
4906.83937	0.53774
4902.98180	0.53643
4899.12422	0.53343
4895.26664	0.53537
4891.40906	0.53925
4887.55148	0.54116
4883.69391	0.54024
4879.83633	0.53864
4875.97875	0.54217
4872.12117	0.54475
4868.26359	0.54101
4864.40602	0.53781
4860.54844	0.53744
4856.69086	0.53988
4852.83328	0.54063
4848.97570	0.53648
4845.11812	0.53517
4841.26055	0.53521
4837.40297	0.53393
4833.54539	0.53819
4829.68781	0.54406
4825.83023	0.54564
4821.97266	0.54564
4818.11508	0.54455
4814.25750	0.54447
4810.39992	0.54840
4806.54234	0.55004
4802.68477	0.54383
4798.82719	0.53805
4794.96961	0.53883
4791.11203	0.53852
4787.25445	0.53557
4783.39687	0.53596
4779.53930	0.53627
4775.68172	0.53665
4771.82414	0.54098
4767.96656	0.54209
4764.10898	0.53952
4760.25141	0.53843
4756.39383	0.53809
4752.53625	0.54088
4748.67867	0.54346
4744.82109	0.54148
4740.96352	0.53881
4737.10594	0.53808
4733.24836	0.53897
4729.39078	0.53926
4725.53320	0.53979
4721.67562	0.54006
4717.81805	0.53905
4713.96047	0.54148
4710.10289	0.54197
4706.24531	0.53639
4702.38773	0.53667
4698.53016	0.54294
4694.67258	0.54357
4690.81500	0.54232
4686.95742	0.54543
4683.09984	0.54525
4679.24227	0.53812
4675.38469	0.53096
4671.52711	0.53085
4667.66953	0.53770
4663.81195	0.54190
4659.95437	0.53676
4656.09680	0.53087
4652.23922	0.53400
4648.38164	0.54085
4644.52406	0.54344
4640.66648	0.54048
4636.80891	0.53442
4632.95133	0.53447
4629.09375	0.54043
4625.23617	0.54302
4621.37859	0.54447
4617.52102	0.54499
4613.66344	0.54206
4609.80586	0.54107
4605.94828	0.54386
4602.09070	0.54629
4598.23312	0.54368
4594.37555	0.54108
4590.51797	0.54296
4586.66039	0.54293
4582.80281	0.54369
4578.94523	0.54638
4575.08766	0.54580
4571.23008	0.54502
4567.37250	0.54416
4563.51492	0.54316
4559.65734	0.54328
4555.79977	0.54298
4551.94219	0.54245
4548.08461	0.54307
4544.22703	0.54576
4540.36945	0.54414
4536.51187	0.54019
4532.65430	0.54310
4528.79672	0.54286
4524.93914	0.53664
4521.08156	0.53768
4517.22398	0.54154
4513.36641	0.53968
4509.50883	0.54008
4505.65125	0.54469
4501.79367	0.54319
4497.93609	0.53952
4494.07852	0.54286
4490.22094	0.54595
4486.36336	0.54519
4482.50578	0.54573
4478.64820	0.54515
4474.79062	0.54197
4470.93305	0.54127
4467.07547	0.54424
4463.21789	0.54628
4459.36031	0.54641
4455.50273	0.54770
4451.64516	0.54795
4447.78758	0.54490
4443.93000	0.54399
4440.07242	0.54610
4436.21484	0.54449
4432.35727	0.54132
4428.49969	0.54238
4424.64211	0.54312
4420.78453	0.54265
4416.92695	0.54465
4413.06937	0.54396
4409.21180	0.54230
4405.35422	0.54690
4401.49664	0.54882
4397.63906	0.54575
4393.78148	0.54748
4389.92391	0.54744
4386.06633	0.54339
4382.20875	0.54392
4378.35117	0.54627
4374.49359	0.54796
4370.63602	0.54939
4366.77844	0.54948
4362.92086	0.54800
4359.06328	0.54556
4355.20570	0.54556
4351.34812	0.54603
4347.49055	0.54514
4343.63297	0.54520
4339.77539	0.54628
4335.91781	0.54854
4332.06023	0.54778
4328.20266	0.54432
4324.34508	0.54391
4320.48750	0.54418
4316.62992	0.54365
4312.77234	0.54415
4308.91477	0.54408
4305.05719	0.54406
4301.19961	0.54787
4297.34203	0.55061
4293.48445	0.54558
4289.62687	0.54189
4285.76930	0.54481
4281.91172	0.54622
4278.05414	0.54546
4274.19656	0.54653
4270.33898	0.54814
4266.48141	0.54715
4262.62383	0.54273
4258.76625	0.54030
4254.90867	0.54360
4251.05109	0.54653
4247.19352	0.54599
4243.33594	0.54650
4239.47836	0.54744
4235.62078	0.54700
4231.76320	0.54758
4227.90562	0.54814
4224.04805	0.54735
4220.19047	0.54673
4216.33289	0.54690
4212.47531	0.54737
4208.61773	0.54643
4204.76016	0.54596
4200.90258	0.54814
4197.04500	0.54875
4193.18742	0.54791
4189.32984	0.54809
4185.47227	0.54720
4181.61469	0.54595
4177.75711	0.54675
4173.89953	0.54958
4170.04195	0.55082
4166.18437	0.54956
4162.32680	0.54907
4158.46922	0.54801
4154.61164	0.54666
4150.75406	0.54644
4146.89648	0.54609
4143.03891	0.54703
4139.18133	0.54829
4135.32375	0.54874
4131.46617	0.55098
4127.60859	0.55288
4123.75102	0.55021
4119.89344	0.54733
4116.03586	0.54911
4112.17828	0.55062
4108.32070	0.54994
4104.46312	0.55070
4100.60555	0.55032
4096.74797	0.54781
4092.89039	0.54806
4089.03281	0.54984
4085.17523	0.54946
4081.31766	0.54918
4077.46008	0.54938
4073.60250	0.54885
4069.74492	0.54873
4065.88734	0.54872
4062.02977	0.54830
4058.17219	0.54792
4054.31461	0.54939
4050.45703	0.55130
4046.59945	0.55002
4042.74187	0.54978
4038.88430	0.55139
4035.02672	0.54940
4031.16914	0.54754
4027.31156	0.54902
4023.45398	0.55068
4019.59641	0.55136
4015.73883	0.55065
4011.88125	0.54985
4008.02367	0.54944
4004.16609	0.54853
4000.30852	0.54907
3996.45094	0.55095
3992.59336	0.55160
3988.73578	0.55079
3984.87820	0.55035
3981.02062	0.55060
3977.16305	0.55009
3973.30547	0.54867
3969.44789	0.54823
3965.59031	0.54980
3961.73273	0.55202
3957.87516	0.55311
3954.01758	0.55199
3950.16000	0.55012
3946.30242	0.55043
3942.44484	0.55107
3938.58727	0.55160
3934.72969	0.55302
3930.87211	0.55254
3927.01453	0.54979
3923.15695	0.54765
3919.29937	0.54750
3915.44180	0.54904
3911.58422	0.55046
3907.72664	0.55151
3903.86906	0.55167
3900.01148	0.54842
3896.15391	0.54601
3892.29633	0.54780
3888.43875	0.55161
3884.58117	0.55354
3880.72359	0.55306
3876.86602	0.55237
3873.00844	0.55294
3869.15086	0.54958
3865.29328	0.54818
3861.43570	0.55341
3857.57812	0.55366
3853.72055	0.54690
3849.86297	0.54887
3846.00539	0.55333
3842.14781	0.55394
3838.29023	0.55098
3834.43266	0.55098
3830.57508	0.55089
3826.71750	0.55005
3822.85992	0.54829
3819.00234	0.54863
3815.14477	0.55130
3811.28719	0.55093
3807.42961	0.55111
3803.57203	0.55280
3799.71445	0.55266
3795.85687	0.55245
3791.99930	0.55122
3788.14172	0.55085
3784.28414	0.55319
3780.42656	0.55326
3776.56898	0.55189
3772.71141	0.55230
3768.85383	0.55129
3764.99625	0.55150
3761.13867	0.55303
3757.28109	0.54944
3753.42352	0.54589
3749.56594	0.55276
3745.70836	0.56013
3741.85078	0.55752
3737.99320	0.55207
3734.13562	0.54757
3730.27805	0.54764
3726.42047	0.54999
3722.56289	0.55369
3718.70531	0.55533
3714.84773	0.55551
3710.99016	0.55149
3707.13258	0.54957
3703.27500	0.55098
3699.41742	0.54970
3695.55984	0.55008
3691.70227	0.55132
3687.84469	0.54916
3683.98711	0.55204
3680.12953	0.55407
3676.27195	0.54917
3672.41437	0.54960
3668.55680	0.55305
3664.69922	0.55311
3660.84164	0.55353
3656.98406	0.55211
3653.12648	0.54953
3649.26891	0.54988
3645.41133	0.55188
3641.55375	0.55369
3637.69617	0.55415
3633.83859	0.55108
3629.98102	0.54751
3626.12344	0.54828
3622.26586	0.55068
3618.40828	0.55256
3614.55070	0.55014
3610.69312	0.54833
3606.83555	0.55017
3602.97797	0.55115
3599.12039	0.55052
3595.26281	0.54954
3591.40523	0.54934
3587.54766	0.55051
3583.69008	0.55096
3579.83250	0.54961
3575.97492	0.54905
3572.11734	0.55000
3568.25977	0.55033
3564.40219	0.54975
3560.54461	0.54937
3556.68703	0.54932
3552.82945	0.54924
3548.97187	0.54943
3545.11430	0.55055
3541.25672	0.55035
3537.39914	0.54940
3533.54156	0.54968
3529.68398	0.55016
3525.82641	0.54934
3521.96883	0.54858
3518.11125	0.54922
3514.25367	0.54924
3510.39609	0.54866
3506.53852	0.54918
3502.68094	0.54911
3498.82336	0.54811
3494.96578	0.54787
3491.10820	0.54830
3487.25062	0.54854
3483.39305	0.54812
3479.53547	0.54770
3475.67789	0.54725
3471.82031	0.54672
3467.96273	0.54754
3464.10516	0.54852
3460.24758	0.54836
3456.39000	0.54829
3452.53242	0.54805
3448.67484	0.54748
3444.81727	0.54659
3440.95969	0.54550
3437.10211	0.54604
3433.24453	0.54752
3429.38695	0.54782
3425.52937	0.54732
3421.67180	0.54681
3417.81422	0.54656
3413.95664	0.54637
3410.09906	0.54567
3406.24148	0.54537
3402.38391	0.54605
3398.52633	0.54602
3394.66875	0.54530
3390.81117	0.54541
3386.95359	0.54563
3383.09602	0.54533
3379.23844	0.54541
3375.38086	0.54593
3371.52328	0.54631
3367.66570	0.54653
3363.80812	0.54654
3359.95055	0.54626
3356.09297	0.54595
3352.23539	0.54527
3348.37781	0.54432
3344.52023	0.54456
3340.66266	0.54562
3336.80508	0.54611
3332.94750	0.54629
3329.08992	0.54603
3325.23234	0.54580
3321.37477	0.54635
3317.51719	0.54641
3313.65961	0.54579
3309.80203	0.54599
3305.94445	0.54661
3302.08687	0.54615
3298.22930	0.54573
3294.37172	0.54660
3290.51414	0.54681
3286.65656	0.54614
3282.79898	0.54640
3278.94141	0.54710
3275.08383	0.54721
3271.22625	0.54677
3267.36867	0.54645
3263.51109	0.54681
3259.65352	0.54707
3255.79594	0.54633
3251.93836	0.54590
3248.08078	0.54647
3244.22320	0.54665
3240.36562	0.54672
3236.50805	0.54723
3232.65047	0.54730
3228.79289	0.54693
3224.93531	0.54669
3221.07773	0.54693
3217.22016	0.54727
3213.36258	0.54730
3209.50500	0.54708
3205.64742	0.54638
3201.78984	0.54617
3197.93227	0.54709
3194.07469	0.54772
3190.21711	0.54749
3186.35953	0.54699
3182.50195	0.54667
3178.64437	0.54681
3174.78680	0.54730
3170.92922	0.54809
3167.07164	0.54877
3163.21406	0.54841
3159.35648	0.54747
3155.49891	0.54740
3151.64133	0.54776
3147.78375	0.54780
3143.92617	0.54801
3140.06859	0.54825
3136.21102	0.54842
3132.35344	0.54846
3128.49586	0.54841
3124.63828	0.54875
3120.78070	0.54896
3116.92312	0.54916
3113.06555	0.54979
3109.20797	0.54967
3105.35039	0.54907
3101.49281	0.54956
3097.63523	0.55023
3093.77766	0.54986
3089.92008	0.54956
3086.06250	0.54972
3082.20492	0.54974
3078.34734	0.54984
3074.48977	0.54996
3070.63219	0.54991
3066.77461	0.55014
3062.91703	0.55038
3059.05945	0.55005
3055.20187	0.54990
3051.34430	0.55027
3047.48672	0.55029
3043.62914	0.55022
3039.77156	0.55046
3035.91398	0.55056
3032.05641	0.55083
3028.19883	0.55127
3024.34125	0.55112
3020.48367	0.55082
3016.62609	0.55106
3012.76852	0.55107
3008.91094	0.55048
3005.05336	0.55015
3001.19578	0.55043
2997.33820	0.55078
2993.48062	0.55043
2989.62305	0.54965
2985.76547	0.54941
2981.90789	0.54979
2978.05031	0.55037
2974.19273	0.55069
2970.33516	0.55029
2966.47758	0.54940
2962.62000	0.54876
2958.76242	0.54853
2954.90484	0.54863
2951.04727	0.54884
2947.18969	0.54861
2943.33211	0.54799
2939.47453	0.54770
2935.61695	0.54756
2931.75937	0.54683
2927.90180	0.54558
2924.04422	0.54482
2920.18664	0.54513
2916.32906	0.54588
2912.47148	0.54685
2908.61391	0.54812
2904.75633	0.54861
2900.89875	0.54860
2897.04117	0.54954
2893.18359	0.55044
2889.32602	0.55041
2885.46844	0.55048
2881.61086	0.55074
2877.75328	0.55088
2873.89570	0.55115
2870.03812	0.55105
2866.18055	0.55066
2862.32297	0.55040
2858.46539	0.54968
2854.60781	0.54853
2850.75023	0.54830
2846.89266	0.54969
2843.03508	0.55135
2839.17750	0.55181
2835.31992	0.55197
2831.46234	0.55250
2827.60477	0.55257
2823.74719	0.55271
2819.88961	0.55332
2816.03203	0.55327
2812.17445	0.55290
2808.31687	0.55314
2804.45930	0.55356
2800.60172	0.55380
2796.74414	0.55382
2792.88656	0.55374
2789.02898	0.55392
2785.17141	0.55425
2781.31383	0.55424
2777.45625	0.55397
2773.59867	0.55399
2769.74109	0.55404
2765.88352	0.55378
2762.02594	0.55367
2758.16836	0.55382
2754.31078	0.55404
2750.45320	0.55414
2746.59562	0.55399
2742.73805	0.55387
2738.88047	0.55391
2735.02289	0.55387
2731.16531	0.55383
2727.30773	0.55393
2723.45016	0.55396
2719.59258	0.55398
2715.73500	0.55419
2711.87742	0.55430
2708.01984	0.55398
2704.16227	0.55375
2700.30469	0.55407
2696.44711	0.55458
2692.58953	0.55466
2688.73195	0.55427
2684.87437	0.55418
2681.01680	0.55436
2677.15922	0.55444
2673.30164	0.55471
2669.44406	0.55466
2665.58648	0.55432
2661.72891	0.55455
2657.87133	0.55480
2654.01375	0.55468
2650.15617	0.55454
2646.29859	0.55443
2642.44102	0.55454
2638.58344	0.55473
2634.72586	0.55455
2630.86828	0.55430
2627.01070	0.55447
2623.15312	0.55471
2619.29555	0.55450
2615.43797	0.55412
2611.58039	0.55403
2607.72281	0.55417
2603.86523	0.55438
2600.00766	0.55453
2596.15008	0.55475
2592.29250	0.55492
2588.43492	0.55495
2584.57734	0.55502
2580.71977	0.55496
2576.86219	0.55479
2573.00461	0.55477
2569.14703	0.55484
2565.28945	0.55469
2561.43187	0.55428
2557.57430	0.55406
2553.71672	0.55428
2549.85914	0.55461
2546.00156	0.55453
2542.14398	0.55435
2538.28641	0.55445
2534.42883	0.55452
2530.57125	0.55461
2526.71367	0.55465
2522.85609	0.55442
2518.99852	0.55449
2515.14094	0.55464
2511.28336	0.55428
2507.42578	0.55407
2503.56820	0.55447
2499.71062	0.55464
2495.85305	0.55435
2491.99547	0.55438
2488.13789	0.55461
2484.28031	0.55439
2480.42273	0.55412
2476.56516	0.55398
2472.70758	0.55389
2468.85000	0.55416
2464.99242	0.55435
2461.13484	0.55436
2457.27727	0.55446
2453.41969	0.55434
2449.56211	0.55407
2445.70453	0.55380
2441.84695	0.55377
2437.98937	0.55420
2434.13180	0.55452
2430.27422	0.55436
2426.41664	0.55426
2422.55906	0.55456
2418.70148	0.55477
2414.84391	0.55466
2410.98633	0.55450
2407.12875	0.55435
2403.27117	0.55441
2399.41359	0.55457
2395.55602	0.55442
2391.69844	0.55408
2387.84086	0.55313
2383.98328	0.55085
2380.12570	0.54682
2376.26812	0.54047
2372.41055	0.53447
2368.55297	0.53522
2364.69539	0.53641
2360.83781	0.53216
2356.98023	0.52833
2353.12266	0.52676
2349.26508	0.52564
2345.40750	0.52286
2341.54992	0.52382
2337.69234	0.52791
2333.83477	0.52761
2329.97719	0.52928
2326.11961	0.53302
2322.26203	0.53596
2318.40445	0.53777
2314.54687	0.53904
2310.68930	0.54107
2306.83172	0.54347
2302.97414	0.54525
2299.11656	0.54671
2295.25898	0.54824
2291.40141	0.54997
2287.54383	0.55169
2283.68625	0.55261
2279.82867	0.55250
2275.97109	0.55206
2272.11352	0.55206
2268.25594	0.55235
2264.39836	0.55261
2260.54078	0.55285
2256.68320	0.55309
2252.82562	0.55322
2248.96805	0.55314
2245.11047	0.55306
2241.25289	0.55332
2237.39531	0.55358
2233.53773	0.55354
2229.68016	0.55374
2225.82258	0.55420
2221.96500	0.55426
2218.10742	0.55393
2214.24984	0.55374
2210.39227	0.55386
2206.53469	0.55382
2202.67711	0.55342
2198.81953	0.55337
2194.96195	0.55366
2191.10437	0.55378
2187.24680	0.55378
2183.38922	0.55360
2179.53164	0.55342
2175.67406	0.55336
2171.81648	0.55321
2167.95891	0.55343
2164.10133	0.55371
2160.24375	0.55349
2156.38617	0.55339
2152.52859	0.55348
2148.67102	0.55332
2144.81344	0.55319
2140.95586	0.55332
2137.09828	0.55363
2133.24070	0.55367
2129.38312	0.55323
2125.52555	0.55314
2121.66797	0.55349
2117.81039	0.55348
2113.95281	0.55321
2110.09523	0.55314
2106.23766	0.55331
2102.38008	0.55339
2098.52250	0.55314
2094.66492	0.55303
2090.80734	0.55330
2086.94977	0.55357
2083.09219	0.55346
2079.23461	0.55292
2075.37703	0.55269
2071.51945	0.55280
2067.66187	0.55250
2063.80430	0.55249
2059.94672	0.55304
2056.08914	0.55296
2052.23156	0.55267
2048.37398	0.55269
2044.51641	0.55276
2040.65883	0.55292
2036.80125	0.55287
2032.94367	0.55278
2029.08609	0.55273
2025.22852	0.55251
2021.37094	0.55271
2017.51336	0.55285
2013.65578	0.55255
2009.79820	0.55252
2005.94062	0.55243
2002.08305	0.55226
1998.22547	0.55229
1994.36789	0.55278
1990.51031	0.55360
1986.65273	0.55336
1982.79516	0.55253
1978.93758	0.55223
1975.08000	0.55217
1971.22242	0.55188
1967.36484	0.55149
1963.50727	0.55170
1959.64969	0.55222
1955.79211	0.55237
1951.93453	0.55199
1948.07695	0.55212
1944.21937	0.55347
1940.36180	0.55353
1936.50422	0.55243
1932.64664	0.55210
1928.78906	0.55224
1924.93148	0.55298
1921.07391	0.55219
1917.21633	0.55001
1913.35875	0.55073
1909.50117	0.55188
1905.64359	0.55164
1901.78602	0.55173
1897.92844	0.55120
1894.07086	0.55126
1890.21328	0.55217
1886.35570	0.55149
1882.49812	0.55100
1878.64055	0.55160
1874.78297	0.55184
1870.92539	0.55125
1867.06781	0.55080
1863.21023	0.55104
1859.35266	0.55114
1855.49508	0.55106
1851.63750	0.55088
1847.77992	0.55234
1843.92234	0.55422
1840.06477	0.55306
1836.20719	0.55205
1832.34961	0.55040
1828.49203	0.54798
1824.63445	0.54959
1820.77687	0.55173
1816.91930	0.55175
1813.06172	0.55157
1809.20414	0.55132
1805.34656	0.55055
1801.48898	0.54907
1797.63141	0.54767
1793.77383	0.54854
1789.91625	0.55105
1786.05867	0.55204
1782.20109	0.55062
1778.34352	0.54945
1774.48594	0.55250
1770.62836	0.55514
1766.77078	0.55355
1762.91320	0.55260
1759.05562	0.55011
1755.19805	0.54848
1751.34047	0.54891
1747.48289	0.54594
1743.62531	0.54530
1739.76773	0.54773
1735.91016	0.54606
1732.05258	0.54603
1728.19500	0.54911
1724.33742	0.54961
1720.47984	0.54755
1716.62227	0.54179
1712.76469	0.54403
1708.90711	0.54793
1705.04953	0.54697
1701.19195	0.54880
1697.33437	0.55220
1693.47680	0.54816
1689.61922	0.54403
1685.76164	0.54333
1681.90406	0.54849
1678.04648	0.54590
1674.18891	0.53921
1670.33133	0.53976
1666.47375	0.54286
1662.61617	0.54266
1658.75859	0.54271
1654.90102	0.54261
1651.04344	0.54071
1647.18586	0.53981
1643.32828	0.54132
1639.47070	0.54181
1635.61312	0.54080
1631.75555	0.54385
1627.89797	0.54739
1624.04039	0.54624
1620.18281	0.54279
1616.32523	0.54083
1612.46766	0.54029
1608.61008	0.54135
1604.75250	0.54238
1600.89492	0.54303
1597.03734	0.54406
1593.17977	0.54389
1589.32219	0.54334
1585.46461	0.54311
1581.60703	0.54153
1577.74945	0.53899
1573.89187	0.53841
1570.03430	0.54294
1566.17672	0.54685
1562.31914	0.54551
1558.46156	0.54235
1554.60398	0.53778
1550.74641	0.53837
1546.88883	0.54558
1543.03125	0.55196
1539.17367	0.54840
1535.31609	0.54439
1531.45852	0.54510
1527.60094	0.54925
1523.74336	0.54411
1519.88578	0.53531
1516.02820	0.54487
1512.17062	0.55190
1508.31305	0.55188
1504.45547	0.54928
1500.59789	0.55005
1496.74031	0.54930
1492.88273	0.54575
1489.02516	0.54678
1485.16758	0.54690
1481.31000	0.54636
1477.45242	0.55069
1473.59484	0.54871
1469.73727	0.53945
1465.87969	0.53760
1462.02211	0.53983
1458.16453	0.54178
1454.30695	0.53879
1450.44937	0.53838
1446.59180	0.54265
1442.73422	0.54697
1438.87664	0.55081
1435.01906	0.55004
1431.16148	0.54550
1427.30391	0.54660
1423.44633	0.54666
1419.58875	0.54103
1415.73117	0.54005
1411.87359	0.54160
1408.01602	0.54234
1404.15844	0.54257
1400.30086	0.54134
1396.44328	0.54506
1392.58570	0.54996
1388.72812	0.54790
1384.87055	0.54310
1381.01297	0.54252
1377.15539	0.54472
1373.29781	0.54447
1369.44023	0.54276
1365.58266	0.54124
1361.72508	0.54185
1357.86750	0.54447
1354.00992	0.54396
1350.15234	0.54318
1346.29477	0.54297
1342.43719	0.54117
1338.57961	0.54152
1334.72203	0.54359
1330.86445	0.54385
1327.00687	0.54345
1323.14930	0.54362
1319.29172	0.54374
1315.43414	0.54353
1311.57656	0.54384
1307.71898	0.54375
1303.86141	0.54321
1300.00383	0.54327
1296.14625	0.54337
1292.28867	0.54296
1288.43109	0.54249
1284.57352	0.54263
1280.71594	0.54305
1276.85836	0.54305
1273.00078	0.54294
1269.14320	0.54295
1265.28562	0.54287
1261.42805	0.54294
1257.57047	0.54304
1253.71289	0.54281
1249.85531	0.54259
1245.99773	0.54273
1242.14016	0.54288
1238.28258	0.54269
1234.42500	0.54260
1230.56742	0.54255
1226.70984	0.54237
1222.85227	0.54254
1218.99469	0.54278
1215.13711	0.54256
1211.27953	0.54245
1207.42195	0.54257
1203.56437	0.54248
1199.70680	0.54245
1195.84922	0.54247
1191.99164	0.54244
1188.13406	0.54261
1184.27648	0.54248
1180.41891	0.54206
1176.56133	0.54189
1172.70375	0.54186
1168.84617	0.54188
1164.98859	0.54196
1161.13102	0.54190
1157.27344	0.54167
1153.41586	0.54155
1149.55828	0.54162
1145.70070	0.54162
1141.84312	0.54141
1137.98555	0.54110
1134.12797	0.54081
1130.27039	0.54047
1126.41281	0.54002
1122.55523	0.53964
1118.69766	0.53939
1114.84008	0.53930
1110.98250	0.53943
1107.12492	0.53964
1103.26734	0.53970
1099.40977	0.53980
1095.55219	0.53999
1091.69461	0.54006
1087.83703	0.54013
1083.97945	0.54045
1080.12187	0.54067
1076.26430	0.54039
1072.40672	0.53999
1068.54914	0.53984
1064.69156	0.53962
1060.83398	0.53954
1056.97641	0.53979
1053.11883	0.53971
1049.26125	0.53941
1045.40367	0.53934
1041.54609	0.53943
1037.68852	0.53954
1033.83094	0.53953
1029.97336	0.53961
1026.11578	0.53975
1022.25820	0.53957
1018.40062	0.53953
1014.54305	0.54008
1010.68547	0.54039
1006.82789	0.54017
1002.97031	0.54022
999.11273	0.54049
995.25516	0.54059
991.39758	0.54064
987.54000	0.54079
983.68242	0.54091
979.82484	0.54089
975.96727	0.54086
972.10969	0.54098
968.25211	0.54108
964.39453	0.54079
960.53695	0.54050
956.67937	0.54064
952.82180	0.54067
948.96422	0.54034
945.10664	0.54016
941.24906	0.54034
937.39148	0.54027
933.53391	0.53990
929.67633	0.53951
925.81875	0.53900
921.96117	0.53857
918.10359	0.53817
914.24602	0.53785
910.38844	0.53772
906.53086	0.53741
902.67328	0.53714
898.81570	0.53699
894.95812	0.53642
891.10055	0.53570
887.24297	0.53538
883.38539	0.53508
879.52781	0.53451
875.67023	0.53385
871.81266	0.53346
867.95508	0.53323
864.09750	0.53286
860.23992	0.53298
856.38234	0.53313
852.52477	0.53260
848.66719	0.53224
844.80961	0.53230
840.95203	0.53254
837.09445	0.53273
833.23687	0.53263
829.37930	0.53269
825.52172	0.53295
821.66414	0.53307
817.80656	0.53300
813.94898	0.53331
810.09141	0.53421
806.23383	0.53439
802.37625	0.53378
798.51867	0.53342
794.66109	0.53275
790.80352	0.53245
786.94594	0.53235
783.08836	0.53110
779.23078	0.53021
775.37320	0.53004
771.51562	0.52976
767.65805	0.52998
763.80047	0.53055
759.94289	0.53154
756.08531	0.53314
752.22773	0.53421
748.37016	0.53424
744.51258	0.53396
740.65500	0.53403
736.79742	0.53481
732.93984	0.53529
729.08227	0.53457
725.22469	0.53561
721.36711	0.53842
717.50953	0.53730
713.65195	0.53352
709.79437	0.53191
705.93680	0.53163
702.07922	0.53175
698.22164	0.53139
694.36406	0.52988
690.50648	0.52946
686.64891	0.52975
682.79133	0.53028
678.93375	0.52853
675.07617	0.52775
671.21859	0.53771
667.36102	0.54147
663.50344	0.53119
659.64586	0.52950
655.78828	0.53065
651.93070	0.52938
648.07312	0.52995
644.21555	0.52988
640.35797	0.52966
636.50039	0.52992
632.64281	0.52968
628.78523	0.52788
624.92766	0.52600
621.07008	0.52691
617.21250	0.52709
613.35492	0.52447
609.49734	0.52310
605.63977	0.52281
601.78219	0.52068
597.92461	0.52009
594.06703	0.52212
590.20945	0.52167
586.35187	0.51637
582.49430	0.50649
578.63672	0.50066
574.77914	0.50131
570.92156	0.49939
567.06398	0.49654
563.20641	0.49062
559.34883	0.47520
555.49125	0.45434
551.63367	0.43158
547.77609	0.40032
543.91852	0.35591
540.06094	0.30163
536.20336	0.24717
532.34578	0.20249
528.48820	0.15081
524.63062	0.10261
520.77305	0.10327
516.91547	0.14073
513.05789	0.16548
509.20031	0.17469
505.34273	0.18766
501.48516	0.20161
497.62758	0.20790
493.77000	0.21164
489.91242	0.21949
486.05484	0.23453
482.19727	0.25660
478.33969	0.27357
474.48211	0.27671
470.62453	0.26596
466.76695	0.24939
462.90937	0.23416
459.05180	0.21238
455.19422	0.18380
451.33664	0.16921
447.47906	0.16493
443.62148	0.15863
439.76391	0.16064
435.90633	0.18010
432.04875	0.20388
428.19117	0.21983
424.33359	0.23248
420.47602	0.23916
416.61844	0.23646
412.76086	0.24256
408.90328	0.26176
405.04570	0.28687
401.18812	0.30880
397.33055	0.33665
393.47297	0.35348
389.61539	0.35759
385.75781	0.36155
381.90023	0.36173
378.04266	0.33888
374.18508	0.29102
370.32750	0.28783
366.46992	0.30945
362.61234	0.30896
358.75477	0.29975
354.89719	0.29925
351.03961	0.36270
347.18203	0.43798
343.32445	0.46696
339.46687	0.62504
335.60930	0.82947
331.75172	0.74726
327.89414	0.59442
324.03656	0.23663
320.17898	0.08508
316.32141	1.00031
312.46383	0.14743
308.60625	-4.19217
304.74867	-4.19217
300.89109	-4.19217
