14998.26375	-4.19217
14994.40617	-4.19217
14990.54859	-4.19217
14986.69102	-4.19217
14982.83344	-4.19217
14978.97586	0.74698
14975.11828	0.85486
14971.26070	-0.07286
14967.40312	-0.07286
14963.54555	0.64161
14959.68797	0.15615
14955.83039	0.18829
14951.97281	1.32605
14948.11523	0.61861
14944.25766	0.36504
14940.40008	0.36304
14936.54250	0.18817
14932.68492	0.66483
14928.82734	1.61704
14924.96977	1.10787
14921.11219	-0.11902
14917.25461	-1.18382
14913.39703	-1.18382
14909.53945	-1.18382
14905.68187	2.13527
14901.82430	0.37442
14897.96672	-1.02031
14894.10914	-1.02031
14890.25156	0.95256
14886.39398	0.98706
14882.53641	0.62447
14878.67883	-0.03056
14874.82125	-0.39858
14870.96367	0.13970
14867.10609	0.13970
14863.24852	0.13970
14859.39094	0.13970
14855.53336	-1.73388
14851.67578	-0.09817
14847.81820	0.95341
14843.96062	0.47968
14840.10305	-0.35961
14836.24547	-2.22879
14832.38789	-2.22879
14828.53031	-2.22879
14824.67273	-2.22879
14820.81516	-2.22879
14816.95758	1.26608
14813.10000	0.72656
14809.24242	0.72656
14805.38484	0.72656
14801.52727	-0.47835
14797.66969	1.12539
14793.81211	1.12539
14789.95453	1.12539
14786.09695	-0.35812
14782.23937	-0.35812
14778.38180	-0.35812
14774.52422	-0.35812
14770.66664	-0.35812
14766.80906	1.17017
14762.95148	0.36521
14759.09391	0.96215
14755.23633	0.19970
14751.37875	-1.05466
14747.52117	-0.70493
14743.66359	0.15307
14739.80602	3.18062
14735.94844	2.62578
14732.09086	0.97817
14728.23328	0.97817
14724.37570	0.97817
14720.51812	0.97817
14716.66055	0.97817
14712.80297	0.97817
14708.94539	0.97817
14705.08781	0.97817
14701.23023	0.97817
14697.37266	0.97817
14693.51508	1.40087
14689.65750	1.40087
14685.79992	1.40087
14681.94234	1.40087
14678.08477	1.40087
14674.22719	1.40087
14670.36961	1.40087
14666.51203	1.40087
14662.65445	-0.16451
14658.79687	-0.12320
14654.93930	-0.12320
14651.08172	-0.12320
14647.22414	-0.12320
14643.36656	-0.12320
14639.50898	1.60546
14635.65141	1.93212
14631.79383	1.93212
14627.93625	0.37099
14624.07867	-0.01154
14620.22109	-0.29742
14616.36352	-0.29742
14612.50594	-0.29742
14608.64836	0.30317
14604.79078	0.09755
14600.93320	0.08106
14597.07562	0.26612
14593.21805	-0.51414
14589.36047	-0.67488
14585.50289	-0.33049
14581.64531	1.14095
14577.78773	1.14095
14573.93016	1.14095
14570.07258	1.08294
14566.21500	0.30380
14562.35742	-0.01565
14558.49984	0.08281
14554.64227	0.39057
14550.78469	0.39057
14546.92711	0.39057
14543.06953	0.40315
14539.21195	-0.06589
14535.35437	-0.06589
14531.49680	-0.06589
14527.63922	-0.06589
14523.78164	0.60672
14519.92406	1.61108
14516.06648	1.61108
14512.20891	1.61108
14508.35133	1.61108
14504.49375	0.59010
14500.63617	-0.19810
14496.77859	0.35437
14492.92102	0.35437
14489.06344	0.35437
14485.20586	0.35437
14481.34828	-0.55326
14477.49070	-0.34199
14473.63312	-0.34199
14469.77555	-0.34199
14465.91797	0.58515
14462.06039	0.58515
14458.20281	0.58515
14454.34523	0.58515
14450.48766	0.58515
14446.63008	0.55372
14442.77250	1.24153
14438.91492	1.24153
14435.05734	1.24153
14431.19977	-0.38130
14427.34219	0.07829
14423.48461	4.14242
14419.62703	4.14242
14415.76945	4.14242
14411.91187	0.48581
14408.05430	0.30477
14404.19672	0.32694
14400.33914	1.38604
14396.48156	2.18453
14392.62398	2.18453
14388.76641	2.18453
14384.90883	0.72909
14381.05125	0.04846
14377.19367	0.04846
14373.33609	0.04846
14369.47852	-0.34087
14365.62094	-0.00124
14361.76336	0.13497
14357.90578	0.16725
14354.04820	0.14695
14350.19062	0.25324
14346.33305	-0.00445
14342.47547	-0.00445
14338.61789	-0.00445
14334.76031	-0.00445
14330.90273	-0.23584
14327.04516	-0.23584
14323.18758	4.02663
14319.33000	0.97012
14315.47242	2.13775
14311.61484	4.87548
14307.75727	0.67071
14303.89969	0.11133
14300.04211	0.74221
14296.18453	1.38401
14292.32695	0.80428
14288.46937	-0.39455
14284.61180	0.25331
14280.75422	0.64917
14276.89664	0.15935
14273.03906	-0.08559
14269.18148	-0.08559
14265.32391	-0.08559
14261.46633	-0.08559
14257.60875	-0.08559
14253.75117	-0.08559
14249.89359	0.13074
14246.03602	0.26051
14242.17844	-0.01864
14238.32086	-0.39424
14234.46328	-0.39424
14230.60570	-0.39424
14226.74812	-0.39424
14222.89055	-0.39424
14219.03297	-0.39424
14215.17539	0.07791
14211.31781	1.98588
14207.46023	1.98588
14203.60266	1.98588
14199.74508	1.98588
14195.88750	2.14404
14192.02992	1.54962
14188.17234	1.54962
14184.31477	4.59379
14180.45719	4.59379
14176.59961	4.59379
14172.74203	4.59379
14168.88445	-1.78173
14165.02687	1.05139
14161.16930	1.47944
14157.31172	0.91197
14153.45414	0.91197
14149.59656	0.91197
14145.73898	0.91197
14141.88141	0.91197
14138.02383	-2.15108
14134.16625	-1.29983
14130.30867	-0.92947
14126.45109	-0.85402
14122.59352	-0.85402
14118.73594	-0.85402
14114.87836	-0.85402
14111.02078	0.73825
14107.16320	2.07186
14103.30562	1.30432
14099.44805	0.56947
14095.59047	0.56947
14091.73289	0.56947
14087.87531	0.56947
14084.01773	0.13139
14080.16016	0.75081
14076.30258	0.64987
14072.44500	0.47802
14068.58742	2.03261
14064.72984	2.03261
14060.87227	2.01069
14057.01469	3.40222
14053.15711	3.40222
14049.29953	3.40222
14045.44195	3.40222
14041.58437	3.40222
14037.72680	3.40222
14033.86922	3.40222
14030.01164	3.40222
14026.15406	3.40222
14022.29648	0.92077
14018.43891	0.57050
14014.58133	0.57050
14010.72375	-0.30838
14006.86617	-0.30838
14003.00859	-0.30838
13999.15102	-0.30838
13995.29344	1.02871
13991.43586	0.78729
13987.57828	0.78729
13983.72070	1.64139
13979.86312	0.47366
13976.00555	0.59930
13972.14797	1.02501
13968.29039	0.52016
13964.43281	0.52016
13960.57523	1.86556
13956.71766	0.78700
13952.86008	1.97216
13949.00250	1.97216
13945.14492	1.97216
13941.28734	0.53459
13937.42977	1.32745
13933.57219	0.87743
13929.71461	0.53972
13925.85703	0.53972
13921.99945	0.27551
13918.14187	-1.05929
13914.28430	-1.05929
13910.42672	-1.05929
13906.56914	-1.05929
13902.71156	-1.05929
13898.85398	-1.05929
13894.99641	2.38827
13891.13883	2.38827
13887.28125	2.38827
13883.42367	2.38827
13879.56609	3.43332
13875.70852	3.43332
13871.85094	-0.01170
13867.99336	0.37104
13864.13578	0.64253
13860.27820	0.11959
13856.42062	-0.18300
13852.56305	-0.18300
13848.70547	-0.18300
13844.84789	-0.18300
13840.99031	-0.18300
13837.13273	-0.78804
13833.27516	-3.58950
13829.41758	-3.58950
13825.56000	-3.58950
13821.70242	-1.40389
13817.84484	-0.42608
13813.98727	0.56333
13810.12969	2.94274
13806.27211	2.22116
13802.41453	1.30592
13798.55695	2.13205
13794.69937	2.13205
13790.84180	4.37044
13786.98422	0.32650
13783.12664	-0.80119
13779.26906	-0.80119
13775.41148	-0.80119
13771.55391	3.21494
13767.69633	0.44971
13763.83875	0.44971
13759.98117	0.44971
13756.12359	0.11068
13752.26602	0.21250
13748.40844	2.07680
13744.55086	2.07680
13740.69328	2.07680
13736.83570	0.91366
13732.97812	0.81145
13729.12055	0.81145
13725.26297	0.81145
13721.40539	1.19436
13717.54781	1.08232
13713.69023	1.38146
13709.83266	1.20322
13705.97508	0.22909
13702.11750	-0.80426
13698.25992	-1.95731
13694.40234	-1.95731
13690.54477	-1.95731
13686.68719	1.95842
13682.82961	0.00848
13678.97203	-0.01764
13675.11445	-0.01764
13671.25687	-0.01764
13667.39930	1.24350
13663.54172	6.59779
13659.68414	3.15211
13655.82656	0.82959
13651.96898	1.19819
13648.11141	0.68542
13644.25383	1.25077
13640.39625	2.64247
13636.53867	2.56146
13632.68109	2.56146
13628.82352	2.56146
13624.96594	2.56146
13621.10836	1.56171
13617.25078	1.83000
13613.39320	0.82737
13609.53562	0.05962
13605.67805	0.05962
13601.82047	0.05962
13597.96289	0.23720
13594.10531	0.45172
13590.24773	0.29899
13586.39016	-0.82639
13582.53258	-0.82639
13578.67500	-0.82639
13574.81742	0.53001
13570.95984	0.68915
13567.10227	1.10144
13563.24469	1.19074
13559.38711	0.94482
13555.52953	1.32696
13551.67195	0.34095
13547.81437	0.15687
13543.95680	0.77176
13540.09922	0.84069
13536.24164	0.79749
13532.38406	-0.29077
13528.52648	-0.22779
13524.66891	0.92851
13520.81133	0.29850
13516.95375	-1.04257
13513.09617	-0.45353
13509.23859	-0.45353
13505.38102	-0.45353
13501.52344	0.06919
13497.66586	0.56850
13493.80828	0.35634
13489.95070	-0.45372
13486.09312	-1.65090
13482.23555	-1.65090
13478.37797	-2.41664
13474.52039	-2.41664
13470.66281	-2.41664
13466.80523	2.71936
13462.94766	2.12792
13459.09008	0.62157
13455.23250	-0.10722
13451.37492	-0.34604
13447.51734	-0.34604
13443.65977	0.72948
13439.80219	0.54716
13435.94461	0.71045
13432.08703	1.25591
13428.22945	0.42661
13424.37187	-0.59482
13420.51430	-0.62621
13416.65672	-0.69818
13412.79914	-1.10527
13408.94156	-1.10527
13405.08398	-1.10527
13401.22641	-1.10527
13397.36883	-0.22324
13393.51125	0.68399
13389.65367	1.68828
13385.79609	1.64737
13381.93852	1.64737
13378.08094	1.64737
13374.22336	1.64737
13370.36578	1.64737
13366.50820	3.77759
13362.65062	0.56844
13358.79305	0.56844
13354.93547	0.56844
13351.07789	-1.31832
13347.22031	-0.73821
13343.36273	0.35431
13339.50516	0.35972
13335.64758	-0.72445
13331.79000	0.55554
13327.93242	0.81098
13324.07484	0.78989
13320.21727	0.78368
13316.35969	0.54601
13312.50211	-0.37119
13308.64453	-0.37119
13304.78695	-2.30911
13300.92937	-0.83626
13297.07180	-0.83626
13293.21422	-0.83626
13289.35664	-0.83626
13285.49906	-1.30175
13281.64148	-2.01243
13277.78391	-2.01243
13273.92633	0.24301
13270.06875	0.24301
13266.21117	0.24301
13262.35359	0.24301
13258.49602	0.26265
13254.63844	-0.12254
13250.78086	-0.71591
13246.92328	-0.71591
13243.06570	-0.71591
13239.20812	2.96294
13235.35055	1.46521
13231.49297	0.04118
13227.63539	-0.48287
13223.77781	-0.13094
13219.92023	2.07475
13216.06266	1.94217
13212.20508	1.94217
13208.34750	1.94217
13204.48992	5.52788
13200.63234	5.52788
13196.77477	-2.66251
13192.91719	0.51549
13189.05961	3.42271
13185.20203	3.42271
13181.34445	3.42271
13177.48687	3.42271
13173.62930	3.42271
13169.77172	1.65167
13165.91414	-0.32980
13162.05656	-0.32980
13158.19898	-0.32980
13154.34141	1.35565
13150.48383	1.21705
13146.62625	0.92253
13142.76867	0.61408
13138.91109	0.61408
13135.05352	0.61408
13131.19594	0.61408
13127.33836	0.61408
13123.48078	0.61408
13119.62320	0.61408
13115.76562	0.61408
13111.90805	0.61408
13108.05047	2.41429
13104.19289	-0.50968
13100.33531	-1.16617
13096.47773	-0.28594
13092.62016	2.71114
13088.76258	0.33733
13084.90500	0.33733
13081.04742	0.33733
13077.18984	-0.35210
13073.33227	0.21166
13069.47469	1.72895
13065.61711	1.72895
13061.75953	1.72895
13057.90195	1.72895
13054.04437	4.21666
13050.18680	0.83491
13046.32922	-0.58444
13042.47164	1.00766
13038.61406	1.88187
13034.75648	1.93498
13030.89891	1.93498
13027.04133	1.93498
13023.18375	-0.38426
13019.32617	0.82986
13015.46859	0.82986
13011.61102	0.82986
13007.75344	0.82986
13003.89586	0.82986
13000.03828	0.82986
12996.18070	0.55056
12992.32312	0.29852
12988.46555	1.18412
12984.60797	2.10218
12980.75039	3.93088
12976.89281	3.93088
12973.03523	3.93088
12969.17766	-0.73332
12965.32008	0.16500
12961.46250	0.47792
12957.60492	0.65913
12953.74734	0.65913
12949.88977	0.65913
12946.03219	0.65913
12942.17461	0.65913
12938.31703	0.92127
12934.45945	0.65683
12930.60187	0.65683
12926.74430	0.65683
12922.88672	0.65683
12919.02914	0.65683
12915.17156	-0.09470
12911.31398	-0.25898
12907.45641	-0.05869
12903.59883	-0.05869
12899.74125	-0.05869
12895.88367	1.16013
12892.02609	0.44153
12888.16852	0.44153
12884.31094	0.44153
12880.45336	-1.55650
12876.59578	0.76419
12872.73820	0.76419
12868.88062	0.76419
12865.02305	1.10178
12861.16547	0.94089
12857.30789	-0.20392
12853.45031	-0.60468
12849.59273	1.73009
12845.73516	1.73009
12841.87758	1.73009
12838.02000	1.53554
12834.16242	0.31899
12830.30484	-0.25392
12826.44727	0.01352
12822.58969	0.63825
12818.73211	2.12459
12814.87453	2.12459
12811.01695	2.12459
12807.15937	0.19857
12803.30180	0.19857
12799.44422	0.19857
12795.58664	0.19857
12791.72906	-1.56864
12787.87148	-0.53083
12784.01391	-0.53083
12780.15633	-0.53083
12776.29875	1.51949
12772.44117	0.92361
12768.58359	0.92361
12764.72602	1.12981
12760.86844	0.06417
12757.01086	-0.09568
12753.15328	-0.17837
12749.29570	-0.41682
12745.43812	-0.97995
12741.58055	-2.54809
12737.72297	-2.54809
12733.86539	-2.54809
12730.00781	-2.54809
12726.15023	-2.54809
12722.29266	-2.54809
12718.43508	-2.54809
12714.57750	0.59064
12710.71992	-0.47862
12706.86234	-1.86501
12703.00477	-0.78614
12699.14719	-0.78614
12695.28961	-0.78614
12691.43203	0.44181
12687.57445	1.53190
12683.71687	1.53190
12679.85930	0.26262
12676.00172	1.77374
12672.14414	1.77374
12668.28656	2.06510
12664.42898	0.29727
12660.57141	0.29727
12656.71383	0.29727
12652.85625	0.29727
12648.99867	0.29727
12645.14109	0.94749
12641.28352	0.94749
12637.42594	0.94749
12633.56836	0.62963
12629.71078	0.62963
12625.85320	0.62963
12621.99562	0.96559
12618.13805	0.76462
12614.28047	0.76462
12610.42289	0.76462
12606.56531	0.76462
12602.70773	0.76462
12598.85016	1.71806
12594.99258	0.91915
12591.13500	-0.25443
12587.27742	-1.10629
12583.41984	0.56081
12579.56227	2.45527
12575.70469	2.45527
12571.84711	2.45527
12567.98953	2.45527
12564.13195	2.45527
12560.27437	2.45527
12556.41680	4.56695
12552.55922	0.20435
12548.70164	-1.70101
12544.84406	-0.91768
12540.98648	0.01410
12537.12891	0.94669
12533.27133	0.94669
12529.41375	0.94669
12525.55617	0.94669
12521.69859	-0.21656
12517.84102	0.20217
12513.98344	0.28210
12510.12586	0.20250
12506.26828	0.21269
12502.41070	0.23579
12498.55312	0.41502
12494.69555	1.85605
12490.83797	1.85605
12486.98039	1.85605
12483.12281	1.85605
12479.26523	1.85605
12475.40766	-0.62016
12471.55008	0.24669
12467.69250	0.28923
12463.83492	-0.26080
12459.97734	-0.26080
12456.11977	-0.26080
12452.26219	-0.26080
12448.40461	-0.26080
12444.54703	-0.26080
12440.68945	-0.26080
12436.83187	0.68974
12432.97430	0.68974
12429.11672	1.41789
12425.25914	0.57374
12421.40156	0.46157
12417.54398	2.32582
12413.68641	1.15585
12409.82883	1.15585
12405.97125	1.15585
12402.11367	1.15585
12398.25609	-1.09464
12394.39852	-1.01586
12390.54094	-0.43609
12386.68336	-0.43609
12382.82578	2.55734
12378.96820	2.55734
12375.11062	2.55734
12371.25305	1.67630
12367.39547	0.63462
12363.53789	-1.03168
12359.68031	-2.43810
12355.82273	-2.43810
12351.96516	-2.43810
12348.10758	-2.43810
12344.25000	2.62949
12340.39242	0.94273
12336.53484	0.29062
12332.67727	0.42120
12328.81969	1.03748
12324.96211	1.87934
12321.10453	1.87934
12317.24695	1.87934
12313.38937	1.87934
12309.53180	-0.54246
12305.67422	-0.54246
12301.81664	-0.54246
12297.95906	-0.54246
12294.10148	-0.54246
12290.24391	-0.54246
12286.38633	-0.54246
12282.52875	-0.54246
12278.67117	-1.83047
12274.81359	-0.67210
12270.95602	2.71419
12267.09844	2.71419
12263.24086	0.68591
12259.38328	0.68591
12255.52570	0.68591
12251.66812	0.68591
12247.81055	1.27826
12243.95297	0.89711
12240.09539	1.30385
12236.23781	2.50829
12232.38023	-0.67334
12228.52266	-0.67334
12224.66508	-0.67334
12220.80750	0.92940
12216.94992	0.92940
12213.09234	0.92940
12209.23477	-1.11280
12205.37719	0.34229
12201.51961	0.77391
12197.66203	-0.42778
12193.80445	0.19272
12189.94687	2.10975
12186.08930	2.64165
12182.23172	1.96756
12178.37414	-0.02375
12174.51656	0.36915
12170.65898	0.36915
12166.80141	0.36915
12162.94383	0.36915
12159.08625	1.44330
12155.22867	0.09151
12151.37109	-1.19640
12147.51352	-0.73288
12143.65594	2.05095
12139.79836	2.52216
12135.94078	2.52216
12132.08320	2.52216
12128.22562	-0.75977
12124.36805	0.84122
12120.51047	0.84122
12116.65289	-0.31046
12112.79531	-0.20075
12108.93773	0.03366
12105.08016	0.54830
12101.22258	0.54830
12097.36500	0.54830
12093.50742	0.54830
12089.64984	0.54830
12085.79227	0.54830
12081.93469	1.03169
12078.07711	-0.04239
12074.21953	-0.59222
12070.36195	-0.59222
12066.50437	-0.62042
12062.64680	0.42698
12058.78922	1.04446
12054.93164	-0.37537
12051.07406	-0.37537
12047.21648	-0.37537
12043.35891	1.21043
12039.50133	0.01445
12035.64375	-2.05792
12031.78617	-2.05792
12027.92859	-2.05792
12024.07102	-0.37437
12020.21344	0.15360
12016.35586	1.26422
12012.49828	1.26422
12008.64070	1.26422
12004.78312	1.31909
12000.92555	1.54550
11997.06797	0.74254
11993.21039	-0.29777
11989.35281	-1.62586
11985.49523	-1.62586
11981.63766	-1.62586
11977.78008	-1.62586
11973.92250	-1.62586
11970.06492	-1.62586
11966.20734	-1.62586
11962.34977	-1.62586
11958.49219	2.44873
11954.63461	0.63453
11950.77703	-0.21634
11946.91945	-0.11704
11943.06187	0.56740
11939.20430	0.56740
11935.34672	0.35233
11931.48914	0.94233
11927.63156	0.94233
11923.77398	3.01686
11919.91641	3.01686
11916.05883	3.01686
11912.20125	3.01686
11908.34367	1.90356
11904.48609	0.45517
11900.62852	0.23572
11896.77094	-0.10195
11892.91336	-1.78955
11889.05578	1.07660
11885.19820	1.28817
11881.34062	1.28817
11877.48305	-0.62776
11873.62547	0.65901
11869.76789	-1.90483
11865.91031	0.14810
11862.05273	1.62539
11858.19516	2.57375
11854.33758	2.57375
11850.48000	2.57375
11846.62242	2.57375
11842.76484	2.57375
11838.90727	0.78999
11835.04969	0.19095
11831.19211	0.19095
11827.33453	0.19095
11823.47695	0.19095
11819.61937	0.19095
11815.76180	0.19095
11811.90422	0.19095
11808.04664	0.19095
11804.18906	0.19095
11800.33148	-5.06368
11796.47391	-5.06368
11792.61633	-5.06368
11788.75875	-5.06368
11784.90117	-5.06368
11781.04359	-5.06368
11777.18602	-5.06368
11773.32844	-5.06368
11769.47086	0.00176
11765.61328	0.00176
11761.75570	0.00176
11757.89812	2.05825
11754.04055	2.54483
11750.18297	2.54483
11746.32539	2.54483
11742.46781	2.54483
11738.61023	2.54483
11734.75266	2.54483
11730.89508	2.19046
11727.03750	-0.28211
11723.17992	0.23647
11719.32234	0.16557
11715.46477	-0.57110
11711.60719	0.57790
11707.74961	0.57790
11703.89203	0.57790
11700.03445	0.57790
11696.17687	0.43318
11692.31930	0.30046
11688.46172	0.61706
11684.60414	0.99082
11680.74656	0.99082
11676.88898	0.99082
11673.03141	0.99082
11669.17383	0.99082
11665.31625	3.93834
11661.45867	6.01310
11657.60109	2.13315
11653.74352	2.13315
11649.88594	2.13315
11646.02836	2.13315
11642.17078	2.13315
11638.31320	-0.26775
11634.45562	2.62256
11630.59805	2.62256
11626.74047	2.62256
11622.88289	0.39877
11619.02531	1.16733
11615.16773	1.05454
11611.31016	1.03143
11607.45258	1.03143
11603.59500	1.03143
11599.73742	1.03143
11595.87984	-0.17217
11592.02227	-0.17217
11588.16469	1.12587
11584.30711	0.39591
11580.44953	0.17826
11576.59195	0.71617
11572.73437	1.49914
11568.87680	1.37108
11565.01922	1.10561
11561.16164	0.89797
11557.30406	0.89797
11553.44648	0.89797
11549.58891	0.34900
11545.73133	-0.48328
11541.87375	-0.48328
11538.01617	-0.48328
11534.15859	1.68575
11530.30102	-0.04436
11526.44344	-0.64018
11522.58586	-0.69117
11518.72828	-0.69117
11514.87070	-0.69117
11511.01312	-0.69117
11507.15555	-0.69117
11503.29797	-0.69117
11499.44039	-0.58406
11495.58281	-1.00701
11491.72523	-2.58001
11487.86766	-2.58001
11484.01008	-2.58001
11480.15250	-2.58001
11476.29492	-2.58001
11472.43734	-1.71300
11468.57977	-1.46002
11464.72219	-1.07314
11460.86461	0.29637
11457.00703	0.29637
11453.14945	0.29637
11449.29187	1.69343
11445.43430	0.49720
11441.57672	0.49720
11437.71914	0.49720
11433.86156	-0.07481
11430.00398	-0.07481
11426.14641	-0.07481
11422.28883	0.45201
11418.43125	0.45201
11414.57367	0.45201
11410.71609	0.05002
11406.85852	0.22100
11403.00094	0.23992
11399.14336	0.35198
11395.28578	0.39989
11391.42820	0.18830
11387.57062	0.18830
11383.71305	0.18830
11379.85547	1.35216
11375.99789	1.35216
11372.14031	-1.52051
11368.28273	-0.61131
11364.42516	-0.61131
11360.56758	-0.61131
11356.71000	-0.61131
11352.85242	1.58896
11348.99484	1.58896
11345.13727	1.58896
11341.27969	3.98926
11337.42211	0.31742
11333.56453	-0.60975
11329.70695	-1.38517
11325.84937	-1.38517
11321.99180	-1.38517
11318.13422	0.08006
11314.27664	0.08006
11310.41906	0.08006
11306.56148	-0.62240
11302.70391	-0.72042
11298.84633	-0.37800
11294.98875	-1.11507
11291.13117	-1.11507
11287.27359	-1.11507
11283.41602	-1.11507
11279.55844	-1.11507
11275.70086	-0.42988
11271.84328	-1.35446
11267.98570	-3.16666
11264.12812	-3.16666
11260.27055	-3.16666
11256.41297	-3.16666
11252.55539	1.57514
11248.69781	-0.54779
11244.84023	-0.54779
11240.98266	-0.54779
11237.12508	-0.54779
11233.26750	0.30424
11229.40992	0.30424
11225.55234	0.30424
11221.69477	0.71051
11217.83719	3.96420
11213.97961	3.96420
11210.12203	3.96420
11206.26445	2.25545
11202.40687	-0.03073
11198.54930	-0.39484
11194.69172	0.43163
11190.83414	0.43163
11186.97656	0.43163
11183.11898	4.40919
11179.26141	1.23715
11175.40383	-0.21181
11171.54625	-0.21181
11167.68867	-0.21181
11163.83109	-0.21181
11159.97352	-0.21181
11156.11594	-0.04911
11152.25836	-1.02121
11148.40078	-0.51599
11144.54320	0.19121
11140.68562	1.01406
11136.82805	1.01406
11132.97047	1.01406
11129.11289	1.01406
11125.25531	1.01406
11121.39773	1.01406
11117.54016	1.01406
11113.68258	1.01406
11109.82500	1.01406
11105.96742	1.39791
11102.10984	1.39791
11098.25227	1.39791
11094.39469	1.03052
11090.53711	1.03052
11086.67953	1.03052
11082.82195	3.63344
11078.96437	6.92122
11075.10680	6.92122
11071.24922	-0.06045
11067.39164	0.23273
11063.53406	0.42684
11059.67648	0.58093
11055.81891	0.92037
11051.96133	1.55083
11048.10375	-0.11217
11044.24617	-0.48551
11040.38859	0.14898
11036.53102	1.58163
11032.67344	0.90787
11028.81586	0.90787
11024.95828	0.90787
11021.10070	0.58891
11017.24312	-0.51208
11013.38555	-0.51208
11009.52797	-0.51208
11005.67039	0.39660
11001.81281	0.30417
10997.95523	1.53135
10994.09766	1.73369
10990.24008	0.62300
10986.38250	0.19527
10982.52492	-0.72388
10978.66734	-0.42740
10974.80977	0.28235
10970.95219	0.28235
10967.09461	0.28235
10963.23703	-0.51763
10959.37945	-0.51763
10955.52187	-0.51763
10951.66430	0.76216
10947.80672	2.86604
10943.94914	2.86604
10940.09156	2.86604
10936.23398	2.86604
10932.37641	2.05009
10928.51883	0.62474
10924.66125	0.43727
10920.80367	0.61661
10916.94609	0.61661
10913.08852	1.59174
10909.23094	-1.13331
10905.37336	-1.03072
10901.51578	-1.03072
10897.65820	-1.03072
10893.80062	-1.03072
10889.94305	-1.03072
10886.08547	1.16889
10882.22789	1.69302
10878.37031	2.15899
10874.51273	2.15899
10870.65516	2.07625
10866.79758	4.65921
10862.94000	4.65921
10859.08242	4.65921
10855.22484	0.67714
10851.36727	1.95139
10847.50969	1.44896
10843.65211	0.62885
10839.79453	0.62885
10835.93695	0.62885
10832.07937	0.62885
10828.22180	0.62885
10824.36422	-0.49729
10820.50664	-0.49729
10816.64906	-0.49729
10812.79148	-0.49729
10808.93391	-0.49729
10805.07633	-0.49729
10801.21875	-0.49729
10797.36117	-0.49729
10793.50359	-0.49729
10789.64602	-0.21335
10785.78844	-0.27805
10781.93086	-1.64668
10778.07328	-0.91070
10774.21570	-0.91070
10770.35812	-0.91070
10766.50055	-0.91070
10762.64297	-0.91070
10758.78539	2.63942
10754.92781	3.18611
10751.07023	3.18611
10747.21266	0.22301
10743.35508	0.87739
10739.49750	0.96170
10735.63992	0.82405
10731.78234	0.82405
10727.92477	0.82405
10724.06719	0.24118
10720.20961	1.17155
10716.35203	1.17155
10712.49445	1.17155
10708.63687	3.91764
10704.77930	4.55120
10700.92172	4.55120
10697.06414	4.55120
10693.20656	2.53827
10689.34898	0.28441
10685.49141	-0.41505
10681.63383	1.17468
10677.77625	1.17468
10673.91867	1.17468
10670.06109	0.99783
10666.20352	0.99783
10662.34594	0.99783
10658.48836	-2.29636
10654.63078	-2.29636
10650.77320	-2.29636
10646.91562	-0.90066
10643.05805	-0.98590
10639.20047	1.38807
10635.34289	3.41398
10631.48531	3.41398
10627.62773	3.41398
10623.77016	-1.79152
10619.91258	-0.13436
10616.05500	-0.62487
10612.19742	-0.62487
10608.33984	-0.62487
10604.48227	-0.62487
10600.62469	-1.85765
10596.76711	-1.56445
10592.90953	-3.51769
10589.05195	-0.54453
10585.19437	0.38768
10581.33680	0.38768
10577.47922	-0.79126
10573.62164	0.51210
10569.76406	0.65863
10565.90648	1.12989
10562.04891	1.12989
10558.19133	1.12989
10554.33375	1.12989
10550.47617	1.03063
10546.61859	-0.69054
10542.76102	0.49659
10538.90344	0.49659
10535.04586	0.49659
10531.18828	0.49659
10527.33070	-0.49657
10523.47312	-0.09927
10519.61555	-0.13948
10515.75797	-0.13948
10511.90039	-2.57824
10508.04281	-0.26376
10504.18523	-0.26376
10500.32766	-0.26376
10496.47008	-2.06120
10492.61250	-1.60871
10488.75492	-1.71452
10484.89734	-1.71452
10481.03977	-1.71452
10477.18219	-1.71452
10473.32461	0.36437
10469.46703	0.49240
10465.60945	0.50200
10461.75187	0.91653
10457.89430	1.28576
10454.03672	1.28576
10450.17914	1.28576
10446.32156	-0.80081
10442.46398	-0.07752
10438.60641	0.27158
10434.74883	0.27158
10430.89125	0.27158
10427.03367	3.77908
10423.17609	2.63635
10419.31852	2.63635
10415.46094	2.63635
10411.60336	2.63635
10407.74578	2.63635
10403.88820	2.63635
10400.03062	0.05275
10396.17305	0.00428
10392.31547	-0.04549
10388.45789	-0.04549
10384.60031	-0.04549
10380.74273	-0.04549
10376.88516	-0.04549
10373.02758	-0.04549
10369.17000	-0.04549
10365.31242	-0.04549
10361.45484	-0.04549
10357.59727	-0.04549
10353.73969	-0.04549
10349.88211	-0.04549
10346.02453	-0.04549
10342.16695	-0.04549
10338.30937	-0.58784
10334.45180	-0.46724
10330.59422	0.01327
10326.73664	0.01327
10322.87906	0.01327
10319.02148	0.01327
10315.16391	0.01327
10311.30633	-0.44435
10307.44875	-0.44435
10303.59117	-0.44435
10299.73359	-0.44435
10295.87602	1.15780
10292.01844	1.60101
10288.16086	0.04432
10284.30328	-0.06829
10280.44570	-0.31523
10276.58812	-2.00735
10272.73055	-2.00735
10268.87297	-2.00735
10265.01539	-2.00735
10261.15781	-2.00735
10257.30023	-2.00735
10253.44266	-2.00735
10249.58508	-2.00735
10245.72750	0.42717
10241.86992	0.29539
10238.01234	0.17615
10234.15477	1.06178
10230.29719	4.02156
10226.43961	2.12320
10222.58203	1.17124
10218.72445	-0.14271
10214.86687	-0.42375
10211.00930	-2.23591
10207.15172	-2.23591
10203.29414	1.89116
10199.43656	1.48511
10195.57898	0.96663
10191.72141	0.01183
10187.86383	-0.84372
10184.00625	-0.40960
10180.14867	-0.26097
10176.29109	0.45133
10172.43352	0.61082
10168.57594	0.75083
10164.71836	1.23450
10160.86078	1.84230
10157.00320	0.30920
10153.14562	-0.09051
10149.28805	0.02530
10145.43047	-0.05145
10141.57289	-0.05181
10137.71531	-0.05181
10133.85773	-0.05181
10130.00016	1.06950
10126.14258	1.06950
10122.28500	1.06950
10118.42742	1.06950
10114.56984	1.06950
10110.71227	1.63404
10106.85469	-0.14358
10102.99711	0.29540
10099.13953	4.57183
10095.28195	4.57183
10091.42437	4.57183
10087.56680	1.65732
10083.70922	1.65732
10079.85164	1.65732
10075.99406	1.72455
10072.13648	0.98223
10068.27891	-0.06972
10064.42133	0.33199
10060.56375	3.21428
10056.70617	4.46174
10052.84859	1.81878
10048.99102	0.33856
10045.13344	-0.02666
10041.27586	-0.27325
10037.41828	-0.12497
10033.56070	-0.12497
10029.70312	-0.12497
10025.84555	1.72823
10021.98797	0.53254
10018.13039	1.18439
10014.27281	2.51285
10010.41523	1.76592
10006.55766	0.53512
10002.70008	0.28385
9998.84250	-0.49969
9994.98492	-0.72488
9991.12734	0.24921
9987.26977	1.37245
9983.41219	1.37245
9979.55461	0.51896
9975.69703	1.35482
9971.83945	1.35482
9967.98187	1.35482
9964.12430	1.35482
9960.26672	1.36227
9956.40914	0.79888
9952.55156	-0.55389
9948.69398	-0.76983
9944.83641	-0.21316
9940.97883	1.01853
9937.12125	1.52059
9933.26367	1.52059
9929.40609	1.52059
9925.54852	1.52059
9921.69094	1.54140
9917.83336	1.40608
9913.97578	0.77822
9910.11820	0.81478
9906.26062	0.81478
9902.40305	0.81478
9898.54547	0.64578
9894.68789	0.08857
9890.83031	0.32043
9886.97273	0.32043
9883.11516	0.32043
9879.25758	0.32043
9875.40000	-3.70830
9871.54242	-0.79660
9867.68484	-0.79660
9863.82727	-0.79660
9859.96969	1.49410
9856.11211	0.84827
9852.25453	-0.17046
9848.39695	-0.17046
9844.53937	-0.17046
9840.68180	-0.17046
9836.82422	2.49148
9832.96664	0.43763
9829.10906	0.77281
9825.25148	2.04111
9821.39391	0.48630
9817.53633	-0.33347
9813.67875	-1.47252
9809.82117	-1.69028
9805.96359	-1.69028
9802.10602	3.21089
9798.24844	1.15664
9794.39086	0.48601
9790.53328	0.48601
9786.67570	-1.35899
9782.81812	0.38704
9778.96055	3.01501
9775.10297	3.01501
9771.24539	3.01501
9767.38781	3.01501
9763.53023	3.01501
9759.67266	3.01501
9755.81508	3.01501
9751.95750	3.01501
9748.09992	-0.91983
9744.24234	-0.91983
9740.38477	-2.28758
9736.52719	0.01482
9732.66961	0.01482
9728.81203	0.01482
9724.95445	0.01482
9721.09687	0.01482
9717.23930	0.01482
9713.38172	0.01482
9709.52414	0.37409
9705.66656	0.39752
9701.80898	1.69712
9697.95141	7.42895
9694.09383	0.66606
9690.23625	-0.75774
9686.37867	0.17840
9682.52109	1.51013
9678.66352	1.55012
9674.80594	1.13307
9670.94836	0.76103
9667.09078	0.76103
9663.23320	0.76103
9659.37562	0.14001
9655.51805	0.00996
9651.66047	-0.33571
9647.80289	-0.31607
9643.94531	0.13586
9640.08773	1.06778
9636.23016	0.65072
9632.37258	0.94958
9628.51500	0.94958
9624.65742	0.94958
9620.79984	0.33632
9616.94227	-0.20763
9613.08469	-0.16799
9609.22711	-0.16799
9605.36953	-0.16799
9601.51195	-0.16799
9597.65437	-0.16799
9593.79680	3.10911
9589.93922	2.75305
9586.08164	1.15792
9582.22406	1.24068
9578.36648	0.56731
9574.50891	-0.36040
9570.65133	-1.41553
9566.79375	-1.41553
9562.93617	-1.41553
9559.07859	-1.41553
9555.22102	-1.41553
9551.36344	-1.41553
9547.50586	-1.41553
9543.64828	-1.41553
9539.79070	1.37340
9535.93312	0.84155
9532.07555	0.22381
9528.21797	-1.27940
9524.36039	-1.27940
9520.50281	-1.27940
9516.64523	-1.27940
9512.78766	0.25747
9508.93008	0.29762
9505.07250	0.16647
9501.21492	0.66838
9497.35734	1.78341
9493.49977	1.18413
9489.64219	1.18413
9485.78461	1.18413
9481.92703	1.18413
9478.06945	1.18413
9474.21187	-1.01461
9470.35430	0.65398
9466.49672	-0.15148
9462.63914	0.02442
9458.78156	0.02442
9454.92398	0.02442
9451.06641	1.06239
9447.20883	0.79452
9443.35125	0.79452
9439.49367	0.79452
9435.63609	0.79452
9431.77852	0.79452
9427.92094	0.79452
9424.06336	-0.96085
9420.20578	-0.62583
9416.34820	-0.39074
9412.49062	-0.18873
9408.63305	-0.03034
9404.77547	-0.10407
9400.91789	0.31180
9397.06031	2.02644
9393.20273	2.02644
9389.34516	1.74700
9385.48758	0.19201
9381.63000	-0.00928
9377.77242	1.05149
9373.91484	0.93213
9370.05727	0.47591
9366.19969	0.47591
9362.34211	0.47591
9358.48453	1.08446
9354.62695	0.13751
9350.76937	0.31031
9346.91180	0.31370
9343.05422	0.29527
9339.19664	0.64478
9335.33906	1.48745
9331.48148	3.42528
9327.62391	3.71724
9323.76633	1.31314
9319.90875	0.22847
9316.05117	0.32840
9312.19359	0.18922
9308.33602	-0.68813
9304.47844	-0.06649
9300.62086	4.08161
9296.76328	4.08161
9292.90570	1.41750
9289.04812	-0.08530
9285.19055	-1.27196
9281.33297	-0.74932
9277.47539	0.00477
9273.61781	0.57261
9269.76023	0.52848
9265.90266	2.17026
9262.04508	3.81372
9258.18750	1.45928
9254.32992	0.23436
9250.47234	0.19123
9246.61477	1.28487
9242.75719	1.28487
9238.89961	2.15652
9235.04203	2.73536
9231.18445	2.73536
9227.32687	2.73536
9223.46930	2.73536
9219.61172	0.54079
9215.75414	0.32064
9211.89656	0.11174
9208.03898	0.68913
9204.18141	0.97833
9200.32383	0.47593
9196.46625	-0.90709
9192.60867	-0.12041
9188.75109	0.87964
9184.89352	1.47232
9181.03594	0.42107
9177.17836	0.33048
9173.32078	0.66706
9169.46320	1.09034
9165.60562	2.25929
9161.74805	1.84126
9157.89047	0.63953
9154.03289	0.28134
9150.17531	-0.80690
9146.31773	-0.09334
9142.46016	0.31525
9138.60258	0.59259
9134.74500	0.59259
9130.88742	3.22603
9127.02984	0.41075
9123.17227	-0.01978
9119.31469	-1.43706
9115.45711	-1.43706
9111.59953	-1.43706
9107.74195	0.18188
9103.88437	-0.03752
9100.02680	0.08294
9096.16922	0.37257
9092.31164	1.38255
9088.45406	1.38255
9084.59648	1.74707
9080.73891	0.83192
9076.88133	0.30209
9073.02375	-0.51540
9069.16617	-0.17076
9065.30859	1.07614
9061.45102	1.07614
9057.59344	1.01538
9053.73586	0.48668
9049.87828	0.78227
9046.02070	0.78227
9042.16312	0.78227
9038.30555	0.78227
9034.44797	0.78227
9030.59039	0.17476
9026.73281	0.33730
9022.87523	0.19994
9019.01766	-0.40130
9015.16008	-0.27981
9011.30250	0.04536
9007.44492	1.37271
9003.58734	2.43570
8999.72977	1.88732
8995.87219	1.00467
8992.01461	0.40680
8988.15703	0.20488
8984.29945	-0.20808
8980.44187	-0.59410
8976.58430	-0.20685
8972.72672	0.80397
8968.86914	3.38945
8965.01156	0.45336
8961.15398	0.50411
8957.29641	1.13027
8953.43883	2.54070
8949.58125	2.54070
8945.72367	-1.78875
8941.86609	-1.32392
8938.00852	-0.46150
8934.15094	-0.66786
8930.29336	-0.22123
8926.43578	0.96648
8922.57820	1.92624
8918.72062	2.14380
8914.86305	2.14380
8911.00547	-0.44155
8907.14789	-0.07058
8903.29031	1.07992
8899.43273	-0.06854
8895.57516	-0.69239
8891.71758	0.39165
8887.86000	1.54626
8884.00242	2.40279
8880.14484	0.02133
8876.28727	-2.97515
8872.42969	-1.91302
8868.57211	-1.91302
8864.71453	-1.91302
8860.85695	-0.59591
8856.99937	-0.29012
8853.14180	-0.06749
8849.28422	0.59236
8845.42664	0.95941
8841.56906	0.40519
8837.71148	0.40519
8833.85391	0.40519
8829.99633	0.40519
8826.13875	0.57445
8822.28117	1.00230
8818.42359	0.39786
8814.56602	-1.28622
8810.70844	-0.75282
8806.85086	1.41621
8802.99328	1.86447
8799.13570	1.06051
8795.27812	0.42240
8791.42055	-0.10576
8787.56297	-0.71495
8783.70539	-0.77236
8779.84781	1.75029
8775.99023	1.28249
8772.13266	0.73308
8768.27508	0.63786
8764.41750	0.45268
8760.55992	-0.00331
8756.70234	-0.92131
8752.84477	-3.41614
8748.98719	-1.19062
8745.12961	-0.31524
8741.27203	0.70190
8737.41445	0.84003
8733.55687	1.15463
8729.69930	1.16752
8725.84172	0.53437
8721.98414	0.15257
8718.12656	-0.15439
8714.26898	0.10296
8710.41141	0.65990
8706.55383	0.65990
8702.69625	-0.26590
8698.83867	1.04997
8694.98109	0.91107
8691.12352	0.42081
8687.26594	1.11624
8683.40836	1.55622
8679.55078	0.77129
8675.69320	0.35373
8671.83562	0.08049
8667.97805	0.03014
8664.12047	0.12571
8660.26289	0.29038
8656.40531	0.17424
8652.54773	-0.19838
8648.69016	-0.03810
8644.83258	0.11117
8640.97500	-0.12167
8637.11742	-0.05169
8633.25984	3.20169
8629.40227	3.51069
8625.54469	3.51069
8621.68711	3.51069
8617.82953	0.73159
8613.97195	0.24424
8610.11437	0.09703
8606.25680	0.14610
8602.39922	0.53681
8598.54164	0.41215
8594.68406	-0.00206
8590.82648	-0.14752
8586.96891	-0.26225
8583.11133	0.04359
8579.25375	0.94658
8575.39617	0.94322
8571.53859	0.47949
8567.68102	0.29815
8563.82344	0.10805
8559.96586	0.17632
8556.10828	-0.47639
8552.25070	-1.03453
8548.39312	0.02477
8544.53555	0.86710
8540.67797	0.52504
8536.82039	-0.02051
8532.96281	0.21207
8529.10523	-0.00754
8525.24766	-0.28983
8521.39008	-0.33906
8517.53250	1.92391
8513.67492	1.04783
8509.81734	1.04783
8505.95977	1.04783
8502.10219	1.04783
8498.24461	1.04783
8494.38703	1.04783
8490.52945	1.50552
8486.67187	1.49349
8482.81430	0.88760
8478.95672	0.37149
8475.09914	0.37149
8471.24156	-0.83977
8467.38398	0.10544
8463.52641	-0.02507
8459.66883	0.13979
8455.81125	0.40325
8451.95367	3.39683
8448.09609	3.39683
8444.23852	3.39683
8440.38094	1.26654
8436.52336	0.43907
8432.66578	0.10645
8428.80820	0.51369
8424.95062	1.35508
8421.09305	1.35508
8417.23547	0.53215
8413.37789	0.49494
8409.52031	0.68567
8405.66273	0.90608
8401.80516	0.88768
8397.94758	1.05229
8394.09000	3.47885
8390.23242	3.47885
8386.37484	3.47885
8382.51727	-0.95202
8378.65969	-0.88726
8374.80211	0.06901
8370.94453	0.58687
8367.08695	0.11272
8363.22937	0.33148
8359.37180	0.98041
8355.51422	0.90154
8351.65664	1.01279
8347.79906	1.01279
8343.94148	1.01279
8340.08391	-0.27847
8336.22633	0.14443
8332.36875	0.34580
8328.51117	-0.52665
8324.65359	0.26341
8320.79602	0.26341
8316.93844	0.26341
8313.08086	0.26341
8309.22328	0.26341
8305.36570	0.26341
8301.50812	0.26341
8297.65055	0.26341
8293.79297	0.26341
8289.93539	0.26341
8286.07781	0.26341
8282.22023	0.26341
8278.36266	0.26341
8274.50508	0.76510
8270.64750	1.38612
8266.78992	1.86761
8262.93234	0.85373
8259.07477	-1.75518
8255.21719	-1.01166
8251.35961	0.20427
8247.50203	0.46137
8243.64445	0.40438
8239.78687	0.18700
8235.92930	0.18947
8232.07172	0.55985
8228.21414	0.55985
8224.35656	-0.47790
8220.49898	-0.21015
8216.64141	1.05544
8212.78383	0.96739
8208.92625	0.09876
8205.06867	-0.22459
8201.21109	0.16849
8197.35352	0.07193
8193.49594	0.15928
8189.63836	0.15928
8185.78078	1.46521
8181.92320	-0.02882
8178.06562	-0.24598
8174.20805	-0.04782
8170.35047	1.03829
8166.49289	1.03829
8162.63531	1.03829
8158.77773	-0.08381
8154.92016	-0.05615
8151.06258	0.10157
8147.20500	0.82610
8143.34742	0.88173
8139.48984	-0.21791
8135.63227	-0.74265
8131.77469	0.14940
8127.91711	0.14940
8124.05953	2.83201
8120.20195	2.09813
8116.34437	2.09813
8112.48680	2.09813
8108.62922	-1.04473
8104.77164	0.27129
8100.91406	2.62350
8097.05648	0.00247
8093.19891	-0.24646
8089.34133	0.29014
8085.48375	0.56972
8081.62617	-0.24303
8077.76859	-1.67819
8073.91102	0.67493
8070.05344	0.67493
8066.19586	0.67493
8062.33828	0.93659
8058.48070	-0.03890
8054.62312	0.61504
8050.76555	2.57290
8046.90797	1.95366
8043.05039	-0.29426
8039.19281	-0.94054
8035.33523	0.00290
8031.47766	2.24276
8027.62008	1.94919
8023.76250	2.51747
8019.90492	4.09524
8016.04734	2.75384
8012.18977	0.03598
8008.33219	-0.31928
8004.47461	-0.50685
8000.61703	-0.11215
7996.75945	1.28379
7992.90187	0.04930
7989.04430	0.01037
7985.18672	0.48137
7981.32914	0.41596
7977.47156	0.19276
7973.61398	0.51984
7969.75641	1.55901
7965.89883	0.56666
7962.04125	-1.17645
7958.18367	0.31015
7954.32609	0.70386
7950.46852	0.52762
7946.61094	0.53093
7942.75336	0.40579
7938.89578	0.01964
7935.03820	-0.12258
7931.18062	-0.24536
7927.32305	0.55535
7923.46547	1.44302
7919.60789	0.68345
7915.75031	0.40208
7911.89273	0.51837
7908.03516	0.14299
7904.17758	-0.19759
7900.32000	-0.88714
7896.46242	-0.88714
7892.60484	0.29613
7888.74727	3.54747
7884.88969	3.54747
7881.03211	2.09043
7877.17453	1.11622
7873.31695	0.81365
7869.45937	0.63933
7865.60180	1.82370
7861.74422	1.18545
7857.88664	0.62613
7854.02906	0.23782
7850.17148	0.04590
7846.31391	0.28689
7842.45633	0.79992
7838.59875	0.88778
7834.74117	0.59895
7830.88359	0.68884
7827.02602	0.82888
7823.16844	0.62809
7819.31086	0.21391
7815.45328	0.07818
7811.59570	0.35574
7807.73812	0.77426
7803.88055	0.83035
7800.02297	0.71089
7796.16539	0.68601
7792.30781	0.34466
7788.45023	0.17597
7784.59266	0.81420
7780.73508	0.93832
7776.87750	0.80717
7773.01992	1.02558
7769.16234	0.66905
7765.30477	0.29897
7761.44719	0.18129
7757.58961	0.01926
7753.73203	0.11484
7749.87445	0.42434
7746.01687	0.54113
7742.15930	0.43810
7738.30172	0.38149
7734.44414	0.40076
7730.58656	0.41244
7726.72898	0.54573
7722.87141	0.76620
7719.01383	0.76367
7715.15625	0.57808
7711.29867	0.31996
7707.44109	0.31590
7703.58352	0.72138
7699.72594	0.57164
7695.86836	0.23098
7692.01078	0.18256
7688.15320	0.15205
7684.29562	0.17402
7680.43805	0.41969
7676.58047	0.65550
7672.72289	0.75229
7668.86531	0.83329
7665.00773	0.74340
7661.15016	0.65044
7657.29258	0.65997
7653.43500	0.65733
7649.57742	0.57589
7645.71984	0.37147
7641.86227	0.22199
7638.00469	0.16460
7634.14711	0.21738
7630.28953	0.35138
7626.43195	0.31885
7622.57437	0.31964
7618.71680	0.43652
7614.85922	0.43800
7611.00164	0.49516
7607.14406	0.68175
7603.28648	0.48554
7599.42891	0.28193
7595.57133	0.46783
7591.71375	0.62967
7587.85617	0.61657
7583.99859	0.61790
7580.14102	0.57502
7576.28344	0.44025
7572.42586	0.30853
7568.56828	0.33137
7564.71070	0.34080
7560.85312	0.35022
7556.99555	0.54325
7553.13797	0.65733
7549.28039	0.50991
7545.42281	0.43409
7541.56523	0.50372
7537.70766	0.48913
7533.85008	0.33342
7529.99250	0.33520
7526.13492	0.52751
7522.27734	0.57451
7518.41977	0.56902
7514.56219	0.51542
7510.70461	0.51135
7506.84703	0.60379
7502.98945	0.53412
7499.13187	0.42377
7495.27430	0.47405
7491.41672	0.57539
7487.55914	0.70432
7483.70156	0.77332
7479.84398	0.51575
7475.98641	0.35197
7472.12883	0.40695
7468.27125	0.50824
7464.41367	0.53171
7460.55609	0.47421
7456.69852	0.43350
7452.84094	0.47004
7448.98336	0.55488
7445.12578	0.47756
7441.26820	0.35785
7437.41062	0.33688
7433.55305	0.26378
7429.69547	0.31441
7425.83789	0.47553
7421.98031	0.45303
7418.12273	0.48795
7414.26516	0.60821
7410.40758	0.56502
7406.55000	0.51757
7402.69242	0.55123
7398.83484	0.52867
7394.97727	0.41991
7391.11969	0.32620
7387.26211	0.29005
7383.40453	0.30504
7379.54695	0.32785
7375.68937	0.40199
7371.83180	0.48572
7367.97422	0.43809
7364.11664	0.36796
7360.25906	0.35038
7356.40148	0.31687
7352.54391	0.36691
7348.68633	0.46446
7344.82875	0.39490
7340.97117	0.36197
7337.11359	0.46507
7333.25602	0.45766
7329.39844	0.38787
7325.54086	0.39711
7321.68328	0.40578
7317.82570	0.45833
7313.96812	0.47086
7310.11055	0.40126
7306.25297	0.38160
7302.39539	0.38897
7298.53781	0.47978
7294.68023	0.55647
7290.82266	0.44429
7286.96508	0.41796
7283.10750	0.39122
7279.24992	0.34158
7275.39234	0.39947
7271.53477	0.41783
7267.67719	0.38878
7263.81961	0.42435
7259.96203	0.49034
7256.10445	0.55216
7252.24687	0.51894
7248.38930	0.49088
7244.53172	0.55045
7240.67414	0.58096
7236.81656	0.48687
7232.95898	0.39142
7229.10141	0.37527
7225.24383	0.37874
7221.38625	0.43745
7217.52867	0.50915
7213.67109	0.49569
7209.81352	0.50268
7205.95594	0.43072
7202.09836	0.32364
7198.24078	0.38614
7194.38320	0.45126
7190.52562	0.39461
7186.66805	0.36452
7182.81047	0.43160
7178.95289	0.46746
7175.09531	0.42250
7171.23773	0.39623
7167.38016	0.41513
7163.52258	0.40116
7159.66500	0.35686
7155.80742	0.36779
7151.94984	0.44027
7148.09227	0.49093
7144.23469	0.48239
7140.37711	0.43321
7136.51953	0.38839
7132.66195	0.37233
7128.80437	0.38231
7124.94680	0.45660
7121.08922	0.52160
7117.23164	0.46321
7113.37406	0.41959
7109.51648	0.39168
7105.65891	0.33974
7101.80133	0.36647
7097.94375	0.43560
7094.08617	0.44248
7090.22859	0.42836
7086.37102	0.44801
7082.51344	0.48431
7078.65586	0.44631
7074.79828	0.37669
7070.94070	0.39051
7067.08312	0.40099
7063.22555	0.40654
7059.36797	0.43318
7055.51039	0.42326
7051.65281	0.45969
7047.79523	0.48994
7043.93766	0.42839
7040.08008	0.40888
7036.22250	0.43583
7032.36492	0.45970
7028.50734	0.44431
7024.64977	0.39783
7020.79219	0.39061
7016.93461	0.43543
7013.07703	0.48038
7009.21945	0.47668
7005.36187	0.45296
7001.50430	0.42868
6997.64672	0.38809
6993.78914	0.38923
6989.93156	0.42771
6986.07398	0.44391
6982.21641	0.43096
6978.35883	0.41701
6974.50125	0.43787
6970.64367	0.46662
6966.78609	0.45836
6962.92852	0.45861
6959.07094	0.46762
6955.21336	0.40743
6951.35578	0.33275
6947.49820	0.34406
6943.64062	0.39892
6939.78305	0.43368
6935.92547	0.44990
6932.06789	0.44645
6928.21031	0.46168
6924.35273	0.49041
6920.49516	0.47598
6916.63758	0.45019
6912.78000	0.45825
6908.92242	0.43980
6905.06484	0.38536
6901.20727	0.38294
6897.34969	0.39537
6893.49211	0.37588
6889.63453	0.38991
6885.77695	0.43353
6881.91937	0.43215
6878.06180	0.39267
6874.20422	0.38715
6870.34664	0.40407
6866.48906	0.40081
6862.63148	0.39616
6858.77391	0.40137
6854.91633	0.41822
6851.05875	0.42282
6847.20117	0.40413
6843.34359	0.40049
6839.48602	0.43794
6835.62844	0.47902
6831.77086	0.44720
6827.91328	0.38908
6824.05570	0.40216
6820.19812	0.45604
6816.34055	0.47078
6812.48297	0.45751
6808.62539	0.45581
6804.76781	0.40373
6800.91023	0.34070
6797.05266	0.35760
6793.19508	0.38441
6789.33750	0.37509
6785.47992	0.39465
6781.62234	0.43024
6777.76477	0.40323
6773.90719	0.37058
6770.04961	0.38367
6766.19203	0.38777
6762.33445	0.39210
6758.47687	0.39947
6754.61930	0.37802
6750.76172	0.37754
6746.90414	0.40138
6743.04656	0.41330
6739.18898	0.40519
6735.33141	0.39869
6731.47383	0.40355
6727.61625	0.38995
6723.75867	0.35701
6719.90109	0.34093
6716.04352	0.38094
6712.18594	0.42165
6708.32836	0.40351
6704.47078	0.39867
6700.61320	0.41057
6696.75562	0.39418
6692.89805	0.38356
6689.04047	0.38584
6685.18289	0.38461
6681.32531	0.39906
6677.46773	0.44283
6673.61016	0.48215
6669.75258	0.46899
6665.89500	0.41352
6662.03742	0.38678
6658.17984	0.39895
6654.32227	0.40203
6650.46469	0.40258
6646.60711	0.41104
6642.74953	0.39833
6638.89195	0.38195
6635.03437	0.40420
6631.17680	0.41906
6627.31922	0.39113
6623.46164	0.39258
6619.60406	0.40890
6615.74648	0.39480
6611.88891	0.38965
6608.03133	0.41171
6604.17375	0.44837
6600.31617	0.44057
6596.45859	0.39767
6592.60102	0.39471
6588.74344	0.40470
6584.88586	0.39125
6581.02828	0.37434
6577.17070	0.38735
6573.31312	0.42335
6569.45555	0.43082
6565.59797	0.40814
6561.74039	0.40346
6557.88281	0.42712
6554.02523	0.44540
6550.16766	0.43961
6546.31008	0.42348
6542.45250	0.41846
6538.59492	0.41647
6534.73734	0.40190
6530.87977	0.41858
6527.02219	0.45073
6523.16461	0.42894
6519.30703	0.40196
6515.44945	0.39298
6511.59187	0.39694
6507.73430	0.43234
6503.87672	0.43228
6500.01914	0.39803
6496.16156	0.41377
6492.30398	0.42443
6488.44641	0.40519
6484.58883	0.40679
6480.73125	0.39853
6476.87367	0.38184
6473.01609	0.38076
6469.15852	0.38414
6465.30094	0.39813
6461.44336	0.40441
6457.58578	0.39470
6453.72820	0.41160
6449.87062	0.42922
6446.01305	0.40526
6442.15547	0.39787
6438.29789	0.41414
6434.44031	0.40684
6430.58273	0.40305
6426.72516	0.40337
6422.86758	0.38931
6419.01000	0.38730
6415.15242	0.39532
6411.29484	0.40910
6407.43727	0.41997
6403.57969	0.40949
6399.72211	0.40205
6395.86453	0.40559
6392.00695	0.40470
6388.14937	0.40838
6384.29180	0.41631
6380.43422	0.42191
6376.57664	0.41921
6372.71906	0.41231
6368.86148	0.41356
6365.00391	0.40707
6361.14633	0.39753
6357.28875	0.40630
6353.43117	0.41385
6349.57359	0.41075
6345.71602	0.41096
6341.85844	0.41245
6338.00086	0.41518
6334.14328	0.42016
6330.28570	0.41838
6326.42812	0.42137
6322.57055	0.43825
6318.71297	0.44546
6314.85539	0.43096
6310.99781	0.41741
6307.14023	0.41654
6303.28266	0.41216
6299.42508	0.41371
6295.56750	0.42505
6291.70992	0.41300
6287.85234	0.40053
6283.99477	0.41020
6280.13719	0.41351
6276.27961	0.41094
6272.42203	0.40574
6268.56445	0.40180
6264.70687	0.41037
6260.84930	0.41000
6256.99172	0.40702
6253.13414	0.41534
6249.27656	0.40469
6245.41898	0.38468
6241.56141	0.38833
6237.70383	0.40295
6233.84625	0.40967
6229.98867	0.41974
6226.13109	0.43209
6222.27352	0.41475
6218.41594	0.38403
6214.55836	0.38649
6210.70078	0.41552
6206.84320	0.43580
6202.98562	0.42959
6199.12805	0.41719
6195.27047	0.40792
6191.41289	0.39608
6187.55531	0.39155
6183.69773	0.40424
6179.84016	0.42859
6175.98258	0.42790
6172.12500	0.40608
6168.26742	0.40611
6164.40984	0.42054
6160.55227	0.42959
6156.69469	0.41744
6152.83711	0.39572
6148.97953	0.38967
6145.12195	0.38487
6141.26437	0.38000
6137.40680	0.38668
6133.54922	0.39203
6129.69164	0.39447
6125.83406	0.40185
6121.97648	0.41373
6118.11891	0.42404
6114.26133	0.42642
6110.40375	0.42580
6106.54617	0.42754
6102.68859	0.41991
6098.83102	0.40187
6094.97344	0.40442
6091.11586	0.42668
6087.25828	0.43530
6083.40070	0.42850
6079.54312	0.41060
6075.68555	0.39692
6071.82797	0.40677
6067.97039	0.42598
6064.11281	0.42923
6060.25523	0.41003
6056.39766	0.39306
6052.54008	0.39056
6048.68250	0.39488
6044.82492	0.40346
6040.96734	0.40389
6037.10977	0.40526
6033.25219	0.41421
6029.39461	0.41493
6025.53703	0.40913
6021.67945	0.40073
6017.82187	0.40101
6013.96430	0.41415
6010.10672	0.41988
6006.24914	0.41671
6002.39156	0.41816
5998.53398	0.41633
5994.67641	0.39984
5990.81883	0.39153
5986.96125	0.40636
5983.10367	0.42081
5979.24609	0.42103
5975.38852	0.40993
5971.53094	0.39915
5967.67336	0.40087
5963.81578	0.40427
5959.95820	0.40566
5956.10062	0.40687
5952.24305	0.39622
5948.38547	0.39091
5944.52789	0.40226
5940.67031	0.41070
5936.81273	0.41655
5932.95516	0.41341
5929.09758	0.39867
5925.24000	0.40199
5921.38242	0.41218
5917.52484	0.40209
5913.66727	0.39968
5909.80969	0.41277
5905.95211	0.41372
5902.09453	0.41453
5898.23695	0.41357
5894.37937	0.40357
5890.52180	0.41216
5886.66422	0.42224
5882.80664	0.41685
5878.94906	0.41500
5875.09148	0.41033
5871.23391	0.40914
5867.37633	0.41648
5863.51875	0.41426
5859.66117	0.41336
5855.80359	0.41481
5851.94602	0.40938
5848.08844	0.40691
5844.23086	0.40174
5840.37328	0.39844
5836.51570	0.40330
5832.65812	0.39890
5828.80055	0.39213
5824.94297	0.40191
5821.08539	0.42017
5817.22781	0.42007
5813.37023	0.40300
5809.51266	0.39814
5805.65508	0.40428
5801.79750	0.40648
5797.93992	0.40249
5794.08234	0.40090
5790.22477	0.40866
5786.36719	0.41426
5782.50961	0.41538
5778.65203	0.42127
5774.79445	0.42496
5770.93687	0.41406
5767.07930	0.40422
5763.22172	0.41001
5759.36414	0.41111
5755.50656	0.41017
5751.64898	0.41699
5747.79141	0.41153
5743.93383	0.39908
5740.07625	0.39438
5736.21867	0.39531
5732.36109	0.40178
5728.50352	0.41191
5724.64594	0.41784
5720.78836	0.41417
5716.93078	0.40993
5713.07320	0.41036
5709.21562	0.40692
5705.35805	0.40040
5701.50047	0.39912
5697.64289	0.40367
5693.78531	0.40433
5689.92773	0.40298
5686.07016	0.40946
5682.21258	0.41192
5678.35500	0.40799
5674.49742	0.40693
5670.63984	0.40333
5666.78227	0.40747
5662.92469	0.41935
5659.06711	0.41201
5655.20953	0.39739
5651.35195	0.39916
5647.49437	0.40896
5643.63680	0.41804
5639.77922	0.41774
5635.92164	0.40810
5632.06406	0.40544
5628.20648	0.40782
5624.34891	0.41027
5620.49133	0.41470
5616.63375	0.41638
5612.77617	0.41475
5608.91859	0.41085
5605.06102	0.40994
5601.20344	0.41252
5597.34586	0.41323
5593.48828	0.41410
5589.63070	0.41170
5585.77312	0.40615
5581.91555	0.40603
5578.05797	0.41001
5574.20039	0.41171
5570.34281	0.41196
5566.48523	0.41213
5562.62766	0.41445
5558.77008	0.41861
5554.91250	0.41463
5551.05492	0.40823
5547.19734	0.41221
5543.33977	0.41886
5539.48219	0.41915
5535.62461	0.41569
5531.76703	0.41429
5527.90945	0.41005
5524.05187	0.40633
5520.19430	0.41076
5516.33672	0.41558
5512.47914	0.41945
5508.62156	0.41462
5504.76398	0.40536
5500.90641	0.41338
5497.04883	0.41755
5493.19125	0.40080
5489.33367	0.39402
5485.47609	0.40697
5481.61852	0.42032
5477.76094	0.42889
5473.90336	0.42470
5470.04578	0.40959
5466.18820	0.40340
5462.33062	0.41057
5458.47305	0.41879
5454.61547	0.42040
5450.75789	0.41745
5446.90031	0.41531
5443.04273	0.41123
5439.18516	0.40669
5435.32758	0.41194
5431.47000	0.41824
5427.61242	0.41190
5423.75484	0.40607
5419.89727	0.40311
5416.03969	0.40063
5412.18211	0.40997
5408.32453	0.41454
5404.46695	0.41026
5400.60937	0.41402
5396.75180	0.41334
5392.89422	0.40391
5389.03664	0.40472
5385.17906	0.41147
5381.32148	0.41334
5377.46391	0.41140
5373.60633	0.40704
5369.74875	0.40277
5365.89117	0.40766
5362.03359	0.41927
5358.17602	0.41980
5354.31844	0.41036
5350.46086	0.40275
5346.60328	0.40135
5342.74570	0.40484
5338.88812	0.40695
5335.03055	0.40689
5331.17297	0.40838
5327.31539	0.41389
5323.45781	0.41050
5319.60023	0.39279
5315.74266	0.38956
5311.88508	0.40626
5308.02750	0.41389
5304.16992	0.41023
5300.31234	0.41047
5296.45477	0.41165
5292.59719	0.40740
5288.73961	0.40586
5284.88203	0.40661
5281.02445	0.39932
5277.16687	0.39559
5273.30930	0.40331
5269.45172	0.40980
5265.59414	0.40941
5261.73656	0.40984
5257.87898	0.40947
5254.02141	0.40363
5250.16383	0.40256
5246.30625	0.41049
5242.44867	0.41545
5238.59109	0.41442
5234.73352	0.41314
5230.87594	0.41093
5227.01836	0.40678
5223.16078	0.41028
5219.30320	0.41721
5215.44562	0.41198
5211.58805	0.40623
5207.73047	0.41304
5203.87289	0.41703
5200.01531	0.41533
5196.15773	0.40997
5192.30016	0.39924
5188.44258	0.39815
5184.58500	0.40623
5180.72742	0.40771
5176.86984	0.40394
5173.01227	0.40233
5169.15469	0.40624
5165.29711	0.40872
5161.43953	0.40865
5157.58195	0.41587
5153.72437	0.41976
5149.86680	0.41089
5146.00922	0.41014
5142.15164	0.41675
5138.29406	0.41061
5134.43648	0.40585
5130.57891	0.40559
5126.72133	0.40344
5122.86375	0.40733
5119.00617	0.40349
5115.14859	0.39784
5111.29102	0.40562
5107.43344	0.40914
5103.57586	0.40737
5099.71828	0.40754
5095.86070	0.40305
5092.00312	0.40369
5088.14555	0.41438
5084.28797	0.41701
5080.43039	0.41177
5076.57281	0.41317
5072.71523	0.41245
5068.85766	0.40330
5065.00008	0.40026
5061.14250	0.40854
5057.28492	0.41514
5053.42734	0.41385
5049.56977	0.40898
5045.71219	0.40517
5041.85461	0.40677
5037.99703	0.40651
5034.13945	0.40505
5030.28187	0.41382
5026.42430	0.42093
5022.56672	0.41839
5018.70914	0.41806
5014.85156	0.41822
5010.99398	0.41276
5007.13641	0.40910
5003.27883	0.41087
4999.42125	0.41002
4995.56367	0.40593
4991.70609	0.40571
4987.84852	0.40579
4983.99094	0.40763
4980.13336	0.41563
4976.27578	0.41590
4972.41820	0.40692
4968.56062	0.40429
4964.70305	0.40896
4960.84547	0.40999
4956.98789	0.40375
4953.13031	0.40266
4949.27273	0.40903
4945.41516	0.41114
4941.55758	0.41067
4937.70000	0.41147
4933.84242	0.41094
4929.98484	0.40927
4926.12727	0.41038
4922.26969	0.41435
4918.41211	0.41412
4914.55453	0.41109
4910.69695	0.41034
4906.83937	0.41032
4902.98180	0.41116
4899.12422	0.40973
4895.26664	0.40616
4891.40906	0.40876
4887.55148	0.40983
4883.69391	0.40425
4879.83633	0.40846
4875.97875	0.41801
4872.12117	0.41552
4868.26359	0.40688
4864.40602	0.40245
4860.54844	0.40285
4856.69086	0.40596
4852.83328	0.40977
4848.97570	0.40897
4845.11812	0.40360
4841.26055	0.40200
4837.40297	0.40609
4833.54539	0.41270
4829.68781	0.41441
4825.83023	0.41042
4821.97266	0.41233
4818.11508	0.41483
4814.25750	0.41132
4810.39992	0.41383
4806.54234	0.41901
4802.68477	0.41390
4798.82719	0.40749
4794.96961	0.40875
4791.11203	0.41081
4787.25445	0.41045
4783.39687	0.40832
4779.53930	0.40575
4775.68172	0.40483
4771.82414	0.40396
4767.96656	0.40813
4764.10898	0.41711
4760.25141	0.41947
4756.39383	0.41436
4752.53625	0.40757
4748.67867	0.40507
4744.82109	0.40707
4740.96352	0.40783
4737.10594	0.40985
4733.24836	0.41187
4729.39078	0.40959
4725.53320	0.40618
4721.67562	0.40461
4717.81805	0.40827
4713.96047	0.41228
4710.10289	0.41137
4706.24531	0.41223
4702.38773	0.41282
4698.53016	0.40884
4694.67258	0.40700
4690.81500	0.40873
4686.95742	0.40681
4683.09984	0.40133
4679.24227	0.40329
4675.38469	0.40994
4671.52711	0.41064
4667.66953	0.41214
4663.81195	0.41538
4659.95437	0.41103
4656.09680	0.40519
4652.23922	0.40748
4648.38164	0.41102
4644.52406	0.40939
4640.66648	0.40947
4636.80891	0.40977
4632.95133	0.40847
4629.09375	0.40948
4625.23617	0.40622
4621.37859	0.40333
4617.52102	0.40758
4613.66344	0.40780
4609.80586	0.40437
4605.94828	0.40481
4602.09070	0.40548
4598.23312	0.40703
4594.37555	0.41102
4590.51797	0.41005
4586.66039	0.40640
4582.80281	0.40842
4578.94523	0.41178
4575.08766	0.41259
4571.23008	0.41213
4567.37250	0.41042
4563.51492	0.40911
4559.65734	0.40751
4555.79977	0.40712
4551.94219	0.40928
4548.08461	0.40830
4544.22703	0.40587
4540.36945	0.40625
4536.51187	0.40749
4532.65430	0.41043
4528.79672	0.41158
4524.93914	0.40831
4521.08156	0.40675
4517.22398	0.40685
4513.36641	0.40677
4509.50883	0.40644
4505.65125	0.40516
4501.79367	0.40734
4497.93609	0.41068
4494.07852	0.41050
4490.22094	0.41085
4486.36336	0.41086
4482.50578	0.40966
4478.64820	0.41024
4474.79062	0.40939
4470.93305	0.40827
4467.07547	0.40981
4463.21789	0.41101
4459.36031	0.41366
4455.50273	0.41478
4451.64516	0.40948
4447.78758	0.40726
4443.93000	0.40962
4440.07242	0.40924
4436.21484	0.40805
4432.35727	0.40691
4428.49969	0.40662
4424.64211	0.40834
4420.78453	0.40931
4416.92695	0.40969
4413.06937	0.40908
4409.21180	0.40949
4405.35422	0.41285
4401.49664	0.41245
4397.63906	0.40888
4393.78148	0.40964
4389.92391	0.41138
4386.06633	0.41037
4382.20875	0.41007
4378.35117	0.41060
4374.49359	0.41188
4370.63602	0.41213
4366.77844	0.40881
4362.92086	0.40823
4359.06328	0.41149
4355.20570	0.41423
4351.34812	0.41508
4347.49055	0.41134
4343.63297	0.40694
4339.77539	0.40619
4335.91781	0.40847
4332.06023	0.41278
4328.20266	0.41324
4324.34508	0.41020
4320.48750	0.40941
4316.62992	0.41110
4312.77234	0.41377
4308.91477	0.41277
4305.05719	0.40924
4301.19961	0.40923
4297.34203	0.40940
4293.48445	0.40842
4289.62687	0.40990
4285.76930	0.41152
4281.91172	0.41052
4278.05414	0.40893
4274.19656	0.40869
4270.33898	0.40940
4266.48141	0.41057
4262.62383	0.41016
4258.76625	0.40925
4254.90867	0.41071
4251.05109	0.41042
4247.19352	0.40826
4243.33594	0.40764
4239.47836	0.40762
4235.62078	0.40984
4231.76320	0.41204
4227.90562	0.41083
4224.04805	0.41036
4220.19047	0.41074
4216.33289	0.40990
4212.47531	0.40977
4208.61773	0.40935
4204.76016	0.40881
4200.90258	0.40990
4197.04500	0.41012
4193.18742	0.40972
4189.32984	0.40998
4185.47227	0.40944
4181.61469	0.40783
4177.75711	0.40677
4173.89953	0.40905
4170.04195	0.41185
4166.18437	0.41103
4162.32680	0.40945
4158.46922	0.40865
4154.61164	0.40700
4150.75406	0.40655
4146.89648	0.41027
4143.03891	0.41224
4139.18133	0.40910
4135.32375	0.40857
4131.46617	0.41023
4127.60859	0.41084
4123.75102	0.41230
4119.89344	0.41217
4116.03586	0.41074
4112.17828	0.41026
4108.32070	0.41083
4104.46312	0.41135
4100.60555	0.40901
4096.74797	0.40710
4092.89039	0.40854
4089.03281	0.40912
4085.17523	0.40844
4081.31766	0.40876
4077.46008	0.40816
4073.60250	0.40695
4069.74492	0.40798
4065.88734	0.40992
4062.02977	0.40989
4058.17219	0.40860
4054.31461	0.40886
4050.45703	0.41034
4046.59945	0.41126
4042.74187	0.41204
4038.88430	0.41179
4035.02672	0.40996
4031.16914	0.40729
4027.31156	0.40540
4023.45398	0.40705
4019.59641	0.41038
4015.73883	0.41161
4011.88125	0.41047
4008.02367	0.40870
4004.16609	0.40784
4000.30852	0.40777
3996.45094	0.40868
3992.59336	0.40932
3988.73578	0.40803
3984.87820	0.40727
3981.02062	0.40757
3977.16305	0.40732
3973.30547	0.40805
3969.44789	0.40925
3965.59031	0.40959
3961.73273	0.41032
3957.87516	0.41021
3954.01758	0.40982
3950.16000	0.41029
3946.30242	0.41045
3942.44484	0.41104
3938.58727	0.41045
3934.72969	0.40946
3930.87211	0.41084
3927.01453	0.41044
3923.15695	0.40806
3919.29937	0.40784
3915.44180	0.40926
3911.58422	0.41055
3907.72664	0.41126
3903.86906	0.41043
3900.01148	0.40912
3896.15391	0.40865
3892.29633	0.40832
3888.43875	0.40925
3884.58117	0.40919
3880.72359	0.40894
3876.86602	0.41182
3873.00844	0.41375
3869.15086	0.41332
3865.29328	0.41275
3861.43570	0.41011
3857.57812	0.40797
3853.72055	0.40665
3849.86297	0.40784
3846.00539	0.41140
3842.14781	0.41540
3838.29023	0.41295
3834.43266	0.40815
3830.57508	0.40890
3826.71750	0.41112
3822.85992	0.41017
3819.00234	0.40808
3815.14477	0.40947
3811.28719	0.41089
3807.42961	0.41144
3803.57203	0.41055
3799.71445	0.40854
3795.85687	0.40835
3791.99930	0.40951
3788.14172	0.41113
3784.28414	0.41226
3780.42656	0.41056
3776.56898	0.40948
3772.71141	0.41119
3768.85383	0.41092
3764.99625	0.40952
3761.13867	0.41077
3757.28109	0.41217
3753.42352	0.41258
3749.56594	0.40933
3745.70836	0.40621
3741.85078	0.41035
3737.99320	0.41337
3734.13562	0.40933
3730.27805	0.40795
3726.42047	0.40849
3722.56289	0.40710
3718.70531	0.40814
3714.84773	0.40856
3710.99016	0.40416
3707.13258	0.40331
3703.27500	0.40612
3699.41742	0.40888
3695.55984	0.41062
3691.70227	0.40956
3687.84469	0.40737
3683.98711	0.41012
3680.12953	0.41274
3676.27195	0.41226
3672.41437	0.41028
3668.55680	0.40848
3664.69922	0.40873
3660.84164	0.41070
3656.98406	0.41201
3653.12648	0.41160
3649.26891	0.40925
3645.41133	0.40878
3641.55375	0.40963
3637.69617	0.40967
3633.83859	0.40950
3629.98102	0.40786
3626.12344	0.40781
3622.26586	0.41089
3618.40828	0.41311
3614.55070	0.41173
3610.69312	0.40853
3606.83555	0.40754
3602.97797	0.40945
3599.12039	0.40994
3595.26281	0.40908
3591.40523	0.40805
3587.54766	0.40648
3583.69008	0.40747
3579.83250	0.40917
3575.97492	0.40964
3572.11734	0.40998
3568.25977	0.41005
3564.40219	0.40899
3560.54461	0.40857
3556.68703	0.40911
3552.82945	0.41089
3548.97187	0.41131
3545.11430	0.40896
3541.25672	0.40907
3537.39914	0.41057
3533.54156	0.40968
3529.68398	0.40870
3525.82641	0.40889
3521.96883	0.40892
3518.11125	0.40962
3514.25367	0.41016
3510.39609	0.40975
3506.53852	0.40959
3502.68094	0.40914
3498.82336	0.40848
3494.96578	0.40864
3491.10820	0.40872
3487.25062	0.40838
3483.39305	0.40783
3479.53547	0.40796
3475.67789	0.40889
3471.82031	0.40882
3467.96273	0.40880
3464.10516	0.40943
3460.24758	0.40847
3456.39000	0.40752
3452.53242	0.40797
3448.67484	0.40806
3444.81727	0.40810
3440.95969	0.40817
3437.10211	0.40770
3433.24453	0.40795
3429.38695	0.40895
3425.52937	0.40916
3421.67180	0.40805
3417.81422	0.40709
3413.95664	0.40736
3410.09906	0.40762
3406.24148	0.40751
3402.38391	0.40795
3398.52633	0.40785
3394.66875	0.40638
3390.81117	0.40630
3386.95359	0.40789
3383.09602	0.40798
3379.23844	0.40738
3375.38086	0.40763
3371.52328	0.40773
3367.66570	0.40782
3363.80812	0.40772
3359.95055	0.40717
3356.09297	0.40675
3352.23539	0.40653
3348.37781	0.40652
3344.52023	0.40647
3340.66266	0.40696
3336.80508	0.40746
3332.94750	0.40655
3329.08992	0.40622
3325.23234	0.40671
3321.37477	0.40609
3317.51719	0.40559
3313.65961	0.40579
3309.80203	0.40581
3305.94445	0.40594
3302.08687	0.40588
3298.22930	0.40546
3294.37172	0.40570
3290.51414	0.40632
3286.65656	0.40647
3282.79898	0.40638
3278.94141	0.40560
3275.08383	0.40460
3271.22625	0.40476
3267.36867	0.40524
3263.51109	0.40538
3259.65352	0.40530
3255.79594	0.40505
3251.93836	0.40491
3248.08078	0.40450
3244.22320	0.40434
3240.36562	0.40491
3236.50805	0.40485
3232.65047	0.40470
3228.79289	0.40538
3224.93531	0.40532
3221.07773	0.40523
3217.22016	0.40600
3213.36258	0.40528
3209.50500	0.40405
3205.64742	0.40449
3201.78984	0.40470
3197.93227	0.40418
3194.07469	0.40387
3190.21711	0.40395
3186.35953	0.40449
3182.50195	0.40428
3178.64437	0.40374
3174.78680	0.40394
3170.92922	0.40359
3167.07164	0.40295
3163.21406	0.40316
3159.35648	0.40363
3155.49891	0.40339
3151.64133	0.40274
3147.78375	0.40314
3143.92617	0.40367
3140.06859	0.40326
3136.21102	0.40325
3132.35344	0.40314
3128.49586	0.40254
3124.63828	0.40240
3120.78070	0.40214
3116.92312	0.40184
3113.06555	0.40219
3109.20797	0.40251
3105.35039	0.40240
3101.49281	0.40222
3097.63523	0.40193
3093.77766	0.40166
3089.92008	0.40162
3086.06250	0.40137
3082.20492	0.40112
3078.34734	0.40118
3074.48977	0.40111
3070.63219	0.40076
3066.77461	0.40048
3062.91703	0.40069
3059.05945	0.40048
3055.20187	0.39978
3051.34430	0.39972
3047.48672	0.39997
3043.62914	0.40005
3039.77156	0.39983
3035.91398	0.39945
3032.05641	0.39938
3028.19883	0.39913
3024.34125	0.39861
3020.48367	0.39860
3016.62609	0.39885
3012.76852	0.39885
3008.91094	0.39897
3005.05336	0.39869
3001.19578	0.39803
2997.33820	0.39792
2993.48062	0.39783
2989.62305	0.39728
2985.76547	0.39674
2981.90789	0.39662
2978.05031	0.39676
2974.19273	0.39653
2970.33516	0.39573
2966.47758	0.39513
2962.62000	0.39544
2958.76242	0.39553
2954.90484	0.39457
2951.04727	0.39391
2947.18969	0.39406
2943.33211	0.39399
2939.47453	0.39337
2935.61695	0.39286
2931.75937	0.39256
2927.90180	0.39234
2924.04422	0.39205
2920.18664	0.39123
2916.32906	0.39066
2912.47148	0.39110
2908.61391	0.39192
2904.75633	0.39253
2900.89875	0.39261
2897.04117	0.39254
2893.18359	0.39233
2889.32602	0.39156
2885.46844	0.39148
2881.61086	0.39197
2877.75328	0.39182
2873.89570	0.39138
2870.03812	0.39084
2866.18055	0.39046
2862.32297	0.39035
2858.46539	0.39005
2854.60781	0.38948
2850.75023	0.38899
2846.89266	0.38935
2843.03508	0.39000
2839.17750	0.38987
2835.31992	0.38975
2831.46234	0.39009
2827.60477	0.38985
2823.74719	0.38926
2819.88961	0.38939
2816.03203	0.38938
2812.17445	0.38888
2808.31687	0.38875
2804.45930	0.38853
2800.60172	0.38816
2796.74414	0.38807
2792.88656	0.38768
2789.02898	0.38723
2785.17141	0.38729
2781.31383	0.38722
2777.45625	0.38693
2773.59867	0.38681
2769.74109	0.38658
2765.88352	0.38639
2762.02594	0.38601
2758.16836	0.38537
2754.31078	0.38520
2750.45320	0.38530
2746.59562	0.38509
2742.73805	0.38449
2738.88047	0.38392
2735.02289	0.38364
2731.16531	0.38337
2727.30773	0.38329
2723.45016	0.38337
2719.59258	0.38325
2715.73500	0.38315
2711.87742	0.38271
2708.01984	0.38201
2704.16227	0.38182
2700.30469	0.38168
2696.44711	0.38132
2692.58953	0.38119
2688.73195	0.38103
2684.87437	0.38077
2681.01680	0.38036
2677.15922	0.37973
2673.30164	0.37964
2669.44406	0.37968
2665.58648	0.37920
2661.72891	0.37900
2657.87133	0.37885
2654.01375	0.37821
2650.15617	0.37759
2646.29859	0.37718
2642.44102	0.37697
2638.58344	0.37691
2634.72586	0.37671
2630.86828	0.37645
2627.01070	0.37618
2623.15312	0.37568
2619.29555	0.37515
2615.43797	0.37494
2611.58039	0.37466
2607.72281	0.37417
2603.86523	0.37386
2600.00766	0.37366
2596.15008	0.37332
2592.29250	0.37305
2588.43492	0.37285
2584.57734	0.37230
2580.71977	0.37179
2576.86219	0.37172
2573.00461	0.37165
2569.14703	0.37125
2565.28945	0.37055
2561.43187	0.36994
2557.57430	0.36961
2553.71672	0.36939
2549.85914	0.36920
2546.00156	0.36884
2542.14398	0.36834
2538.28641	0.36805
2534.42883	0.36786
2530.57125	0.36763
2526.71367	0.36719
2522.85609	0.36650
2518.99852	0.36608
2515.14094	0.36601
2511.28336	0.36570
2507.42578	0.36504
2503.56820	0.36443
2499.71062	0.36408
2495.85305	0.36369
2491.99547	0.36331
2488.13789	0.36314
2484.28031	0.36271
2480.42273	0.36203
2476.56516	0.36155
2472.70758	0.36112
2468.85000	0.36090
2464.99242	0.36091
2461.13484	0.36040
2457.27727	0.35945
2453.41969	0.35894
2449.56211	0.35888
2445.70453	0.35860
2441.84695	0.35808
2437.98937	0.35763
2434.13180	0.35714
2430.27422	0.35661
2426.41664	0.35626
2422.55906	0.35609
2418.70148	0.35578
2414.84391	0.35534
2410.98633	0.35511
2407.12875	0.35492
2403.27117	0.35442
2399.41359	0.35382
2395.55602	0.35337
2391.69844	0.35282
2387.84086	0.35195
2383.98328	0.35053
2380.12570	0.34807
2376.26812	0.34478
2372.41055	0.34289
2368.55297	0.34263
2364.69539	0.34009
2360.83781	0.34191
2356.98023	0.34557
2353.12266	0.34054
2349.26508	0.33734
2345.40750	0.33672
2341.54992	0.33804
2337.69234	0.33725
2333.83477	0.33417
2329.97719	0.33324
2326.11961	0.33369
2322.26203	0.33584
2318.40445	0.33759
2314.54687	0.33694
2310.68930	0.33624
2306.83172	0.33677
2302.97414	0.33734
2299.11656	0.33755
2295.25898	0.33780
2291.40141	0.33803
2287.54383	0.33798
2283.68625	0.33752
2279.82867	0.33701
2275.97109	0.33664
2272.11352	0.33606
2268.25594	0.33564
2264.39836	0.33549
2260.54078	0.33490
2256.68320	0.33405
2252.82562	0.33347
2248.96805	0.33289
2245.11047	0.33211
2241.25289	0.33157
2237.39531	0.33111
2233.53773	0.33048
2229.68016	0.33018
2225.82258	0.32966
2221.96500	0.32869
2218.10742	0.32804
2214.24984	0.32769
2210.39227	0.32718
2206.53469	0.32625
2202.67711	0.32530
2198.81953	0.32484
2194.96195	0.32428
2191.10437	0.32351
2187.24680	0.32285
2183.38922	0.32217
2179.53164	0.32150
2175.67406	0.32085
2171.81648	0.32023
2167.95891	0.31963
2164.10133	0.31898
2160.24375	0.31835
2156.38617	0.31772
2152.52859	0.31706
2148.67102	0.31640
2144.81344	0.31574
2140.95586	0.31494
2137.09828	0.31406
2133.24070	0.31330
2129.38312	0.31268
2125.52555	0.31206
2121.66797	0.31128
2117.81039	0.31054
2113.95281	0.30989
2110.09523	0.30909
2106.23766	0.30833
2102.38008	0.30780
2098.52250	0.30703
2094.66492	0.30598
2090.80734	0.30533
2086.94977	0.30479
2083.09219	0.30385
2079.23461	0.30304
2075.37703	0.30228
2071.51945	0.30132
2067.66187	0.30037
2063.80430	0.29938
2059.94672	0.29848
2056.08914	0.29774
2052.23156	0.29716
2048.37398	0.29649
2044.51641	0.29543
2040.65883	0.29450
2036.80125	0.29377
2032.94367	0.29294
2029.08609	0.29223
2025.22852	0.29137
2021.37094	0.29030
2017.51336	0.28931
2013.65578	0.28838
2009.79820	0.28743
2005.94062	0.28651
2002.08305	0.28582
1998.22547	0.28525
1994.36789	0.28424
1990.51031	0.28289
1986.65273	0.28199
1982.79516	0.28122
1978.93758	0.28027
1975.08000	0.27955
1971.22242	0.27882
1967.36484	0.27792
1963.50727	0.27683
1959.64969	0.27560
1955.79211	0.27455
1951.93453	0.27345
1948.07695	0.27245
1944.21937	0.27192
1940.36180	0.27116
1936.50422	0.27003
1932.64664	0.26889
1928.78906	0.26783
1924.93148	0.26677
1921.07391	0.26546
1917.21633	0.26453
1913.35875	0.26378
1909.50117	0.26243
1905.64359	0.26131
1901.78602	0.26071
1897.92844	0.26009
1894.07086	0.25900
1890.21328	0.25721
1886.35570	0.25600
1882.49812	0.25539
1878.64055	0.25441
1874.78297	0.25323
1870.92539	0.25171
1867.06781	0.25028
1863.21023	0.24971
1859.35266	0.24873
1855.49508	0.24744
1851.63750	0.24694
1847.77992	0.24630
1843.92234	0.24439
1840.06477	0.24270
1836.20719	0.24174
1832.34961	0.24068
1828.49203	0.23935
1824.63445	0.23826
1820.77687	0.23722
1816.91930	0.23602
1813.06172	0.23469
1809.20414	0.23307
1805.34656	0.23216
1801.48898	0.23199
1797.63141	0.23128
1793.77383	0.22950
1789.91625	0.22730
1786.05867	0.22621
1782.20109	0.22540
1778.34352	0.22440
1774.48594	0.22333
1770.62836	0.22157
1766.77078	0.22087
1762.91320	0.21995
1759.05562	0.21766
1755.19805	0.21626
1751.34047	0.21549
1747.48289	0.21344
1743.62531	0.21107
1739.76773	0.21030
1735.91016	0.20979
1732.05258	0.20804
1728.19500	0.20685
1724.33742	0.20596
1720.47984	0.20479
1716.62227	0.20274
1712.76469	0.20104
1708.90711	0.20047
1705.04953	0.20000
1701.19195	0.19842
1697.33437	0.19574
1693.47680	0.19462
1689.61922	0.19368
1685.76164	0.19216
1681.90406	0.19035
1678.04648	0.18856
1674.18891	0.18724
1670.33133	0.18683
1666.47375	0.18649
1662.61617	0.18498
1658.75859	0.18289
1654.90102	0.18101
1651.04344	0.17985
1647.18586	0.17876
1643.32828	0.17660
1639.47070	0.17532
1635.61312	0.17453
1631.75555	0.17281
1627.89797	0.17121
1624.04039	0.16953
1620.18281	0.16809
1616.32523	0.16644
1612.46766	0.16515
1608.61008	0.16411
1604.75250	0.16258
1600.89492	0.16141
1597.03734	0.16021
1593.17977	0.15888
1589.32219	0.15740
1585.46461	0.15580
1581.60703	0.15444
1577.74945	0.15253
1573.89187	0.15092
1570.03430	0.14990
1566.17672	0.14874
1562.31914	0.14797
1558.46156	0.14687
1554.60398	0.14461
1550.74641	0.14281
1546.88883	0.14128
1543.03125	0.13973
1539.17367	0.13848
1535.31609	0.13734
1531.45852	0.13553
1527.60094	0.13365
1523.74336	0.13285
1519.88578	0.13154
1516.02820	0.12924
1512.17062	0.12837
1508.31305	0.12699
1504.45547	0.12475
1500.59789	0.12439
1496.74031	0.12367
1492.88273	0.12185
1489.02516	0.11997
1485.16758	0.11800
1481.31000	0.11679
1477.45242	0.11587
1473.59484	0.11409
1469.73727	0.11208
1465.87969	0.11056
1462.02211	0.10951
1458.16453	0.10838
1454.30695	0.10667
1450.44937	0.10537
1446.59180	0.10366
1442.73422	0.10196
1438.87664	0.10065
1435.01906	0.09922
1431.16148	0.09796
1427.30391	0.09657
1423.44633	0.09531
1419.58875	0.09391
1415.73117	0.09232
1411.87359	0.09131
1408.01602	0.08996
1404.15844	0.08846
1400.30086	0.08731
1396.44328	0.08591
1392.58570	0.08434
1388.72812	0.08290
1384.87055	0.08151
1381.01297	0.08013
1377.15539	0.07867
1373.29781	0.07726
1369.44023	0.07609
1365.58266	0.07475
1361.72508	0.07330
1357.86750	0.07220
1354.00992	0.07086
1350.15234	0.06930
1346.29477	0.06814
1342.43719	0.06689
1338.57961	0.06527
1334.72203	0.06412
1330.86445	0.06311
1327.00687	0.06188
1323.14930	0.06071
1319.29172	0.05947
1315.43414	0.05815
1311.57656	0.05695
1307.71898	0.05584
1303.86141	0.05465
1300.00383	0.05342
1296.14625	0.05242
1292.28867	0.05125
1288.43109	0.04982
1284.57352	0.04871
1280.71594	0.04785
1276.85836	0.04692
1273.00078	0.04581
1269.14320	0.04473
1265.28562	0.04379
1261.42805	0.04270
1257.57047	0.04137
1253.71289	0.04021
1249.85531	0.03934
1245.99773	0.03839
1242.14016	0.03737
1238.28258	0.03642
1234.42500	0.03541
1230.56742	0.03451
1226.70984	0.03368
1222.85227	0.03269
1218.99469	0.03177
1215.13711	0.03085
1211.27953	0.02990
1207.42195	0.02906
1203.56437	0.02809
1199.70680	0.02723
1195.84922	0.02652
1191.99164	0.02552
1188.13406	0.02454
1184.27648	0.02397
1180.41891	0.02351
1176.56133	0.02280
1172.70375	0.02194
1168.84617	0.02114
1164.98859	0.02030
1161.13102	0.01945
1157.27344	0.01893
1153.41586	0.01833
1149.55828	0.01748
1145.70070	0.01698
1141.84312	0.01659
1137.98555	0.01590
1134.12797	0.01519
1130.27039	0.01462
1126.41281	0.01394
1122.55523	0.01338
1118.69766	0.01315
1114.84008	0.01261
1110.98250	0.01181
1107.12492	0.01130
1103.26734	0.01086
1099.40977	0.01040
1095.55219	0.01016
1091.69461	0.00990
1087.83703	0.00938
1083.97945	0.00889
1080.12187	0.00857
1076.26430	0.00811
1072.40672	0.00745
1068.54914	0.00693
1064.69156	0.00671
1060.83398	0.00654
1056.97641	0.00630
1053.11883	0.00610
1049.26125	0.00590
1045.40367	0.00564
1041.54609	0.00522
1037.68852	0.00475
1033.83094	0.00454
1029.97336	0.00448
1026.11578	0.00425
1022.25820	0.00389
1018.40062	0.00357
1014.54305	0.00334
1010.68547	0.00322
1006.82789	0.00322
1002.97031	0.00310
999.11273	0.00271
995.25516	0.00250
991.39758	0.00263
987.54000	0.00253
983.68242	0.00215
979.82484	0.00185
975.96727	0.00178
972.10969	0.00178
968.25211	0.00179
964.39453	0.00173
960.53695	0.00155
956.67937	0.00133
952.82180	0.00117
948.96422	0.00120
945.10664	0.00131
941.24906	0.00129
937.39148	0.00109
933.53391	0.00079
929.67633	0.00047
925.81875	0.00038
921.96117	0.00060
918.10359	0.00065
914.24602	0.00060
910.38844	0.00069
906.53086	0.00060
902.67328	0.00028
898.81570	0.00004
894.95812	0.00025
891.10055	0.00059
887.24297	0.00038
883.38539	0.00041
879.52781	0.00045
875.67023	-0.00025
871.81266	0.00005
867.95508	0.00006
864.09750	-0.00022
860.23992	-0.00020
856.38234	0.00014
852.52477	0.00027
848.66719	0.00005
844.80961	0.00001
840.95203	0.00007
837.09445	0.00013
833.23687	-0.00005
829.37930	-0.00018
825.52172	0.00006
821.66414	0.00040
817.80656	0.00041
813.94898	-0.00015
810.09141	0.00005
806.23383	0.00072
802.37625	0.00054
798.51867	-0.00040
794.66109	0.00009
790.80352	-0.00007
786.94594	-0.00020
783.08836	-0.00052
779.23078	-0.00065
775.37320	0.00039
771.51562	0.00082
767.65805	0.00070
763.80047	0.00065
759.94289	0.00057
756.08531	0.00023
752.22773	-0.00013
748.37016	-0.00010
744.51258	-0.00005
740.65500	-0.00023
736.79742	-0.00042
732.93984	-0.00046
729.08227	-0.00051
725.22469	-0.00042
721.36711	0.00026
717.50953	0.00043
713.65195	0.00009
709.79437	0.00028
705.93680	0.00016
702.07922	-0.00052
698.22164	-0.00032
694.36406	-0.00007
690.50648	-0.00021
686.64891	0.00005
682.79133	0.00016
678.93375	0.00013
675.07617	0.00059
671.21859	0.00106
667.36102	0.00122
663.50344	0.00092
659.64586	-0.00013
655.78828	-0.00068
651.93070	0.00009
648.07312	0.00050
644.21555	0.00060
640.35797	0.00123
636.50039	0.00158
632.64281	0.00070
628.78523	-0.00001
624.92766	0.00026
621.07008	0.00021
617.21250	-0.00034
613.35492	-0.00063
609.49734	-0.00044
605.63977	0.00032
601.78219	0.00069
597.92461	0.00045
594.06703	0.00014
590.20945	-0.00026
586.35187	0.00002
582.49430	-0.00000
578.63672	-0.00072
574.77914	-0.00083
570.92156	-0.00049
567.06398	-0.00091
563.20641	-0.00002
559.34883	0.00063
555.49125	0.00114
551.63367	0.00148
547.77609	0.00133
543.91852	0.00041
540.06094	-0.00087
536.20336	-0.00145
532.34578	-0.00097
528.48820	-0.00013
524.63062	0.00034
520.77305	0.00125
516.91547	0.00065
513.05789	-0.00063
509.20031	-0.00018
505.34273	-0.00099
501.48516	-0.00083
497.62758	0.00209
493.77000	0.00167
489.91242	-0.00052
486.05484	-0.00055
482.19727	0.00114
478.33969	0.00229
474.48211	0.00373
470.62453	0.00458
466.76695	0.00326
462.90937	0.00199
459.05180	0.00128
455.19422	0.00063
451.33664	0.00138
447.47906	0.00379
443.62148	0.00397
439.76391	0.00020
435.90633	-0.00006
432.04875	0.00144
428.19117	-0.00240
424.33359	-0.00503
420.47602	-0.00109
416.61844	0.00129
412.76086	-0.00055
408.90328	0.00189
405.04570	0.00697
401.18812	0.00417
397.33055	-0.00565
393.47297	-0.00339
389.61539	0.00582
385.75781	0.00486
381.90023	-0.02138
378.04266	-0.01301
374.18508	0.02425
370.32750	0.01038
366.46992	-0.01334
362.61234	0.01580
358.75477	0.01892
354.89719	-0.05845
351.03961	-0.04233
347.18203	-0.00646
343.32445	-0.04754
339.46687	-0.04725
335.60930	-0.01902
331.75172	-0.03471
327.89414	-0.01055
324.03656	0.12254
320.17898	0.31223
316.32141	0.26544
312.46383	-0.02129
308.60625	1.31168
304.74867	1.31168
300.89109	1.31168
