14998.26375	1.31168
14994.40617	1.31168
14990.54859	1.31168
14986.69102	1.31168
14982.83344	1.31168
14978.97586	0.50763
14975.11828	1.36276
14971.26070	1.89425
14967.40312	1.89425
14963.54555	-0.56581
14959.68797	-0.84000
14955.83039	-0.99186
14951.97281	-0.17644
14948.11523	-0.02179
14944.25766	-0.27945
14940.40008	-0.40276
14936.54250	-0.29309
14932.68492	1.06060
14928.82734	0.83547
14924.96977	-0.55373
14921.11219	-0.65281
14917.25461	2.08804
14913.39703	2.08804
14909.53945	2.08804
14905.68187	2.75788
14901.82430	0.46061
14897.96672	0.65003
14894.10914	0.65003
14890.25156	0.25495
14886.39398	1.04247
14882.53641	1.32819
14878.67883	0.43057
14874.82125	-0.14570
14870.96367	0.57089
14867.10609	0.57089
14863.24852	0.57089
14859.39094	0.57089
14855.53336	-2.82744
14851.67578	-1.30649
14847.81820	0.15295
14843.96062	0.34507
14840.10305	0.74866
14836.24547	1.75395
14832.38789	1.75395
14828.53031	1.75395
14824.67273	1.75395
14820.81516	1.75395
14816.95758	-0.95631
14813.10000	-1.63791
14809.24242	-1.63791
14805.38484	-1.63791
14801.52727	4.42943
14797.66969	-1.17007
14793.81211	-1.17007
14789.95453	-1.17007
14786.09695	1.72496
14782.23937	1.72496
14778.38180	1.72496
14774.52422	1.72496
14770.66664	1.72496
14766.80906	0.12757
14762.95148	1.05404
14759.09391	1.20984
14755.23633	1.15703
14751.37875	3.42392
14747.52117	1.91625
14743.66359	-0.13941
14739.80602	0.56408
14735.94844	-0.12746
14732.09086	-1.77456
14728.23328	-1.77456
14724.37570	-1.77456
14720.51812	-1.77456
14716.66055	-1.77456
14712.80297	-1.77456
14708.94539	-1.77456
14705.08781	-1.77456
14701.23023	-1.77456
14697.37266	-1.77456
14693.51508	-0.62340
14689.65750	-0.62340
14685.79992	-0.62340
14681.94234	-0.62340
14678.08477	-0.62340
14674.22719	-0.62340
14670.36961	-0.62340
14666.51203	-0.62340
14662.65445	0.00033
14658.79687	-0.24811
14654.93930	-0.24811
14651.08172	-0.24811
14647.22414	-0.24811
14643.36656	-0.24811
14639.50898	0.09969
14635.65141	-0.31493
14631.79383	-0.31493
14627.93625	-0.61057
14624.07867	0.12858
14620.22109	0.48515
14616.36352	0.48515
14612.50594	0.48515
14608.64836	1.27344
14604.79078	0.44899
14600.93320	0.58649
14597.07562	0.66508
14593.21805	-0.47019
14589.36047	-0.04978
14585.50289	0.05890
14581.64531	-0.73891
14577.78773	-0.73891
14573.93016	-0.73891
14570.07258	1.34786
14566.21500	0.69106
14562.35742	0.23003
14558.49984	-0.41171
14554.64227	-0.28016
14550.78469	-0.28016
14546.92711	-0.28016
14543.06953	-1.09824
14539.21195	-0.11497
14535.35437	-0.11497
14531.49680	-0.11497
14527.63922	-0.11497
14523.78164	1.04754
14519.92406	0.09629
14516.06648	0.09629
14512.20891	0.09629
14508.35133	0.09629
14504.49375	0.50406
14500.63617	0.57524
14496.77859	0.58769
14492.92102	0.58769
14489.06344	0.58769
14485.20586	0.58769
14481.34828	-1.27742
14477.49070	-0.71561
14473.63312	-0.71561
14469.77555	-0.71561
14465.91797	0.49115
14462.06039	0.49115
14458.20281	0.49115
14454.34523	0.49115
14450.48766	0.49115
14446.63008	2.42900
14442.77250	1.23419
14438.91492	1.23419
14435.05734	1.23419
14431.19977	0.37130
14427.34219	0.44017
14423.48461	2.23491
14419.62703	2.23491
14415.76945	2.23491
14411.91187	0.56495
14408.05430	-0.43731
14404.19672	-0.09726
14400.33914	1.10126
14396.48156	-0.10838
14392.62398	-0.10838
14388.76641	-0.10838
14384.90883	0.60598
14381.05125	-0.36021
14377.19367	-0.36021
14373.33609	-0.36021
14369.47852	0.37641
14365.62094	-0.02303
14361.76336	-0.01946
14357.90578	0.44361
14354.04820	0.93891
14350.19062	1.23149
14346.33305	1.18514
14342.47547	1.18514
14338.61789	1.18514
14334.76031	1.18514
14330.90273	0.44040
14327.04516	0.44040
14323.18758	4.86037
14319.33000	1.03607
14315.47242	0.38524
14311.61484	0.52747
14307.75727	-0.06662
14303.89969	0.26597
14300.04211	0.80074
14296.18453	1.06915
14292.32695	1.83230
14288.46937	0.85443
14284.61180	0.45366
14280.75422	0.57868
14276.89664	-0.09636
14273.03906	-0.04988
14269.18148	-0.04988
14265.32391	-0.04988
14261.46633	-0.04988
14257.60875	-0.04988
14253.75117	-0.04988
14249.89359	-0.45256
14246.03602	-0.13744
14242.17844	0.07343
14238.32086	0.86683
14234.46328	0.86683
14230.60570	0.86683
14226.74812	0.86683
14222.89055	0.86683
14219.03297	0.86683
14215.17539	-0.16998
14211.31781	1.34694
14207.46023	1.34694
14203.60266	1.34694
14199.74508	1.34694
14195.88750	0.93196
14192.02992	0.48862
14188.17234	0.48862
14184.31477	2.92232
14180.45719	2.92232
14176.59961	2.92232
14172.74203	2.92232
14168.88445	-1.02326
14165.02687	-0.40314
14161.16930	0.09068
14157.31172	0.33930
14153.45414	0.33930
14149.59656	0.33930
14145.73898	0.33930
14141.88141	0.33930
14138.02383	1.30617
14134.16625	0.84907
14130.30867	1.06678
14126.45109	-0.50009
14122.59352	-0.50009
14118.73594	-0.50009
14114.87836	-0.50009
14111.02078	2.67290
14107.16320	1.48898
14103.30562	-0.90754
14099.44805	0.07573
14095.59047	0.07573
14091.73289	0.07573
14087.87531	0.07573
14084.01773	0.48313
14080.16016	0.33210
14076.30258	0.81157
14072.44500	0.83724
14068.58742	1.26731
14064.72984	1.26731
14060.87227	0.19626
14057.01469	1.47476
14053.15711	1.47476
14049.29953	1.47476
14045.44195	1.47476
14041.58437	1.47476
14037.72680	1.47476
14033.86922	1.47476
14030.01164	1.47476
14026.15406	1.47476
14022.29648	0.43915
14018.43891	-0.83694
14014.58133	-0.83694
14010.72375	0.34470
14006.86617	0.34470
14003.00859	0.34470
13999.15102	0.34470
13995.29344	-1.66807
13991.43586	0.00761
13987.57828	0.00761
13983.72070	-1.76442
13979.86312	-1.52592
13976.00555	-3.67094
13972.14797	-2.72345
13968.29039	-0.48189
13964.43281	-0.48189
13960.57523	0.47939
13956.71766	-0.43399
13952.86008	-1.65177
13949.00250	-1.65177
13945.14492	-1.65177
13941.28734	0.25542
13937.42977	0.59819
13933.57219	2.13223
13929.71461	-0.05738
13925.85703	-0.05738
13921.99945	-1.67300
13918.14187	0.73895
13914.28430	0.73895
13910.42672	0.73895
13906.56914	0.73895
13902.71156	0.73895
13898.85398	0.73895
13894.99641	1.98189
13891.13883	1.98189
13887.28125	1.98189
13883.42367	1.98189
13879.56609	-0.28337
13875.70852	-0.28337
13871.85094	-0.46732
13867.99336	0.22136
13864.13578	0.99322
13860.27820	0.53928
13856.42062	0.09323
13852.56305	0.09323
13848.70547	0.09323
13844.84789	0.09323
13840.99031	0.09323
13837.13273	0.64112
13833.27516	0.37318
13829.41758	0.37318
13825.56000	0.37318
13821.70242	0.49364
13817.84484	0.71391
13813.98727	1.14128
13810.12969	1.23589
13806.27211	0.36936
13802.41453	-0.00170
13798.55695	-0.72414
13794.69937	-0.72414
13790.84180	1.60423
13786.98422	0.85593
13783.12664	1.15180
13779.26906	1.15180
13775.41148	1.15180
13771.55391	1.12424
13767.69633	0.48537
13763.83875	0.48537
13759.98117	0.48537
13756.12359	1.52894
13752.26602	0.35893
13748.40844	0.00882
13744.55086	0.00882
13740.69328	0.00882
13736.83570	-0.07832
13732.97812	0.55347
13729.12055	0.55347
13725.26297	0.55347
13721.40539	0.53627
13717.54781	-0.23193
13713.69023	-1.16326
13709.83266	-0.87236
13705.97508	0.47550
13702.11750	0.99650
13698.25992	1.51838
13694.40234	1.51838
13690.54477	1.51838
13686.68719	1.49946
13682.82961	0.81999
13678.97203	1.14877
13675.11445	1.14877
13671.25687	1.14877
13667.39930	1.25118
13663.54172	2.47463
13659.68414	1.83487
13655.82656	0.61731
13651.96898	0.53550
13648.11141	1.76910
13644.25383	2.35435
13640.39625	1.62790
13636.53867	0.94392
13632.68109	0.94392
13628.82352	0.94392
13624.96594	0.94392
13621.10836	-1.33167
13617.25078	0.33830
13613.39320	1.13776
13609.53562	1.82528
13605.67805	1.82528
13601.82047	1.82528
13597.96289	-0.57570
13594.10531	-0.06858
13590.24773	-0.48137
13586.39016	-3.25809
13582.53258	-3.25809
13578.67500	-3.25809
13574.81742	-1.17082
13570.95984	-0.74526
13567.10227	-0.63949
13563.24469	-0.41988
13559.38711	0.63171
13555.52953	0.39188
13551.67195	-0.36962
13547.81437	0.15042
13543.95680	0.13154
13540.09922	0.76340
13536.24164	2.87559
13532.38406	1.93010
13528.52648	0.64843
13524.66891	1.06514
13520.81133	2.55959
13516.95375	1.62899
13513.09617	1.92136
13509.23859	1.92136
13505.38102	1.92136
13501.52344	1.29121
13497.66586	0.01893
13493.80828	0.07300
13489.95070	0.23378
13486.09312	1.25620
13482.23555	1.25620
13478.37797	2.33189
13474.52039	2.33189
13470.66281	2.33189
13466.80523	-0.37864
13462.94766	-0.14847
13459.09008	0.99893
13455.23250	0.76474
13451.37492	1.22303
13447.51734	1.22303
13443.65977	0.31268
13439.80219	-0.12294
13435.94461	-0.38571
13432.08703	-0.21305
13428.22945	1.79590
13424.37187	2.24385
13420.51430	0.19185
13416.65672	-0.77111
13412.79914	0.61010
13408.94156	0.61010
13405.08398	0.61010
13401.22641	0.61010
13397.36883	0.17887
13393.51125	-0.04728
13389.65367	-0.55500
13385.79609	-2.17314
13381.93852	-2.17314
13378.08094	-2.17314
13374.22336	-2.17314
13370.36578	-2.17314
13366.50820	2.55846
13362.65062	0.00840
13358.79305	0.00840
13354.93547	0.00840
13351.07789	-0.40631
13347.22031	0.24055
13343.36273	0.58234
13339.50516	0.73702
13335.64758	0.71117
13331.79000	0.59977
13327.93242	0.43088
13324.07484	0.91317
13320.21727	1.24013
13316.35969	-0.01922
13312.50211	-0.13031
13308.64453	-0.13031
13304.78695	0.86356
13300.92937	0.35068
13297.07180	0.35068
13293.21422	0.35068
13289.35664	0.35068
13285.49906	1.85166
13281.64148	1.26982
13277.78391	1.26982
13273.92633	-0.04490
13270.06875	-0.04490
13266.21117	-0.04490
13262.35359	-0.04490
13258.49602	0.70030
13254.63844	0.23250
13250.78086	0.21499
13246.92328	0.21499
13243.06570	0.21499
13239.20812	2.93965
13235.35055	2.49925
13231.49297	2.29561
13227.63539	0.41930
13223.77781	-0.14027
13219.92023	0.91660
13216.06266	0.85455
13212.20508	0.85455
13208.34750	0.85455
13204.48992	-1.47804
13200.63234	-1.47804
13196.77477	1.83462
13192.91719	0.31534
13189.05961	1.04242
13185.20203	1.04242
13181.34445	1.04242
13177.48687	1.04242
13173.62930	1.04242
13169.77172	0.79997
13165.91414	0.44113
13162.05656	0.44113
13158.19898	0.44113
13154.34141	-1.30025
13150.48383	-0.74681
13146.62625	-0.62479
13142.76867	1.04757
13138.91109	1.04757
13135.05352	1.04757
13131.19594	1.04757
13127.33836	1.04757
13123.48078	1.04757
13119.62320	1.04757
13115.76562	1.04757
13111.90805	1.04757
13108.05047	3.67772
13104.19289	0.85555
13100.33531	0.14410
13096.47773	1.25130
13092.62016	1.57697
13088.76258	-0.01013
13084.90500	-0.01013
13081.04742	-0.01013
13077.18984	1.03166
13073.33227	-0.02110
13069.47469	-1.16102
13065.61711	-1.16102
13061.75953	-1.16102
13057.90195	-1.16102
13054.04437	-2.18243
13050.18680	-3.02094
13046.32922	2.47284
13042.47164	1.81425
13038.61406	0.80195
13034.75648	2.83545
13030.89891	2.83545
13027.04133	2.83545
13023.18375	0.28558
13019.32617	0.49446
13015.46859	0.49446
13011.61102	0.49446
13007.75344	0.49446
13003.89586	0.49446
13000.03828	0.49446
12996.18070	-0.03138
12992.32312	-0.01045
12988.46555	-0.09826
12984.60797	0.88334
12980.75039	3.76739
12976.89281	3.76739
12973.03523	3.76739
12969.17766	0.21612
12965.32008	0.29062
12961.46250	1.39500
12957.60492	2.01675
12953.74734	2.01675
12949.88977	2.01675
12946.03219	2.01675
12942.17461	2.01675
12938.31703	-0.12173
12934.45945	0.10153
12930.60187	0.10153
12926.74430	0.10153
12922.88672	0.10153
12919.02914	0.10153
12915.17156	1.58452
12911.31398	0.66555
12907.45641	0.42668
12903.59883	0.42668
12899.74125	0.42668
12895.88367	1.30078
12892.02609	0.26209
12888.16852	0.26209
12884.31094	0.26209
12880.45336	7.42854
12876.59578	2.55928
12872.73820	2.55928
12868.88062	2.55928
12865.02305	4.02218
12861.16547	1.55816
12857.30789	0.67074
12853.45031	0.31771
12849.59273	1.92113
12845.73516	1.92113
12841.87758	1.92113
12838.02000	1.19218
12834.16242	-0.32594
12830.30484	-0.41333
12826.44727	0.17272
12822.58969	0.35863
12818.73211	0.95921
12814.87453	0.95921
12811.01695	0.95921
12807.15937	-0.75961
12803.30180	-0.75961
12799.44422	-0.75961
12795.58664	-0.75961
12791.72906	0.98217
12787.87148	0.08093
12784.01391	0.08093
12780.15633	0.08093
12776.29875	1.42115
12772.44117	1.11575
12768.58359	1.11575
12764.72602	-0.15539
12760.86844	1.68750
12757.01086	2.75200
12753.15328	0.45433
12749.29570	0.12719
12745.43812	-0.24405
12741.58055	-1.22001
12737.72297	-1.22001
12733.86539	-1.22001
12730.00781	-1.22001
12726.15023	-1.22001
12722.29266	-1.22001
12718.43508	-1.22001
12714.57750	0.24060
12710.71992	0.29590
12706.86234	0.35438
12703.00477	-0.04291
12699.14719	-0.04291
12695.28961	-0.04291
12691.43203	-1.10214
12687.57445	-1.50940
12683.71687	-1.50940
12679.85930	0.50825
12676.00172	1.11499
12672.14414	1.11499
12668.28656	1.36110
12664.42898	5.11102
12660.57141	5.11102
12656.71383	5.11102
12652.85625	5.11102
12648.99867	5.11102
12645.14109	-0.03080
12641.28352	-0.03080
12637.42594	-0.03080
12633.56836	1.30030
12629.71078	1.30030
12625.85320	1.30030
12621.99562	-0.50823
12618.13805	-0.40269
12614.28047	-0.40269
12610.42289	-0.40269
12606.56531	-0.40269
12602.70773	-0.40269
12598.85016	1.54217
12594.99258	0.62133
12591.13500	1.46124
12587.27742	2.15137
12583.41984	0.71966
12579.56227	0.93248
12575.70469	0.93248
12571.84711	0.93248
12567.98953	0.93248
12564.13195	0.93248
12560.27437	0.93248
12556.41680	2.31823
12552.55922	1.06718
12548.70164	0.62621
12544.84406	0.59478
12540.98648	0.37916
12537.12891	0.63176
12533.27133	0.63176
12529.41375	0.63176
12525.55617	0.63176
12521.69859	3.07890
12517.84102	0.83644
12513.98344	0.10058
12510.12586	-0.47639
12506.26828	-0.14298
12502.41070	-0.03059
12498.55312	0.20380
12494.69555	1.29789
12490.83797	1.29789
12486.98039	1.29789
12483.12281	1.29789
12479.26523	1.29789
12475.40766	-0.74617
12471.55008	-0.37118
12467.69250	-0.44585
12463.83492	-0.55479
12459.97734	-0.55479
12456.11977	-0.55479
12452.26219	-0.55479
12448.40461	-0.55479
12444.54703	-0.55479
12440.68945	-0.55479
12436.83187	0.80899
12432.97430	0.80899
12429.11672	-0.37895
12425.25914	-0.29952
12421.40156	1.13234
12417.54398	6.00980
12413.68641	3.52285
12409.82883	3.52285
12405.97125	3.52285
12402.11367	3.52285
12398.25609	-1.79885
12394.39852	-0.64435
12390.54094	0.40872
12386.68336	0.40872
12382.82578	2.05005
12378.96820	2.05005
12375.11062	2.05005
12371.25305	1.24685
12367.39547	0.50443
12363.53789	0.92168
12359.68031	1.73302
12355.82273	1.73302
12351.96516	1.73302
12348.10758	1.73302
12344.25000	1.88947
12340.39242	1.27583
12336.53484	1.40744
12332.67727	0.58741
12328.81969	0.19408
12324.96211	2.68788
12321.10453	2.68788
12317.24695	2.68788
12313.38937	2.68788
12309.53180	-1.52810
12305.67422	-1.52810
12301.81664	-1.52810
12297.95906	-1.52810
12294.10148	-1.52810
12290.24391	-1.52810
12286.38633	-1.52810
12282.52875	-1.52810
12278.67117	-1.97044
12274.81359	-1.86514
12270.95602	-2.79802
12267.09844	-2.79802
12263.24086	4.69617
12259.38328	4.69617
12255.52570	4.69617
12251.66812	4.69617
12247.81055	-0.43521
12243.95297	-0.05926
12240.09539	0.10093
12236.23781	1.85792
12232.38023	1.70518
12228.52266	1.70518
12224.66508	1.70518
12220.80750	0.94293
12216.94992	0.94293
12213.09234	0.94293
12209.23477	-1.51368
12205.37719	0.57149
12201.51961	1.61870
12197.66203	-0.40104
12193.80445	-0.84242
12189.94687	0.20078
12186.08930	-0.29017
12182.23172	-0.69710
12178.37414	-0.00410
12174.51656	0.07406
12170.65898	0.07406
12166.80141	0.07406
12162.94383	0.07406
12159.08625	2.45403
12155.22867	2.53162
12151.37109	1.96280
12147.51352	1.10460
12143.65594	0.91285
12139.79836	-1.10360
12135.94078	-1.10360
12132.08320	-1.10360
12128.22562	0.92073
12124.36805	2.18857
12120.51047	2.18857
12116.65289	1.85629
12112.79531	0.29935
12108.93773	0.21842
12105.08016	-0.04315
12101.22258	-0.04315
12097.36500	-0.04315
12093.50742	-0.04315
12089.64984	-0.04315
12085.79227	-0.04315
12081.93469	0.61107
12078.07711	-0.02701
12074.21953	1.12414
12070.36195	1.12414
12066.50437	1.25981
12062.64680	0.41495
12058.78922	1.35542
12054.93164	2.71263
12051.07406	2.71263
12047.21648	2.71263
12043.35891	0.30316
12039.50133	0.82700
12035.64375	1.92933
12031.78617	1.92933
12027.92859	1.92933
12024.07102	0.74842
12020.21344	0.38168
12016.35586	0.21824
12012.49828	0.21824
12008.64070	0.21824
12004.78312	-1.56552
12000.92555	0.27674
11997.06797	0.41618
11993.21039	0.87355
11989.35281	1.75274
11985.49523	1.75274
11981.63766	1.75274
11977.78008	1.75274
11973.92250	1.75274
11970.06492	1.75274
11966.20734	1.75274
11962.34977	1.75274
11958.49219	-0.46036
11954.63461	1.33790
11950.77703	1.79944
11946.91945	1.26627
11943.06187	3.10538
11939.20430	3.10538
11935.34672	1.01045
11931.48914	0.57064
11927.63156	0.57064
11923.77398	1.06837
11919.91641	1.06837
11916.05883	1.06837
11912.20125	1.06837
11908.34367	-0.16328
11904.48609	0.32398
11900.62852	1.22185
11896.77094	1.51727
11892.91336	-0.62933
11889.05578	-0.40562
11885.19820	1.26450
11881.34062	1.26450
11877.48305	-0.35276
11873.62547	-0.49409
11869.76789	-0.97136
11865.91031	-0.72206
11862.05273	-0.31154
11858.19516	1.19569
11854.33758	1.19569
11850.48000	1.19569
11846.62242	1.19569
11842.76484	1.19569
11838.90727	1.44751
11835.04969	2.71303
11831.19211	2.71303
11827.33453	2.71303
11823.47695	2.71303
11819.61937	2.71303
11815.76180	2.71303
11811.90422	2.71303
11808.04664	2.71303
11804.18906	2.71303
11800.33148	1.44056
11796.47391	1.44056
11792.61633	1.44056
11788.75875	1.44056
11784.90117	1.44056
11781.04359	1.44056
11777.18602	1.44056
11773.32844	1.44056
11769.47086	0.72746
11765.61328	0.72746
11761.75570	0.72746
11757.89812	0.95954
11754.04055	0.36757
11750.18297	0.36757
11746.32539	0.36757
11742.46781	0.36757
11738.61023	0.36757
11734.75266	0.36757
11730.89508	0.96249
11727.03750	-0.65130
11723.17992	-0.02888
11719.32234	0.28297
11715.46477	0.39239
11711.60719	1.15525
11707.74961	1.15525
11703.89203	1.15525
11700.03445	1.15525
11696.17687	1.61771
11692.31930	0.91024
11688.46172	-0.08782
11684.60414	-1.82211
11680.74656	-1.82211
11676.88898	-1.82211
11673.03141	-1.82211
11669.17383	-1.82211
11665.31625	0.06586
11661.45867	0.23100
11657.60109	1.95337
11653.74352	1.95337
11649.88594	1.95337
11646.02836	1.95337
11642.17078	1.95337
11638.31320	0.94602
11634.45562	-0.39391
11630.59805	-0.39391
11626.74047	-0.39391
11622.88289	1.11682
11619.02531	1.00610
11615.16773	1.96559
11611.31016	1.65220
11607.45258	1.65220
11603.59500	1.65220
11599.73742	1.65220
11595.87984	-2.74367
11592.02227	-2.74367
11588.16469	-0.66270
11584.30711	-0.95293
11580.44953	-0.28087
11576.59195	1.18254
11572.73437	1.68366
11568.87680	0.35994
11565.01922	-0.48909
11561.16164	0.19326
11557.30406	0.19326
11553.44648	0.19326
11549.58891	0.76994
11545.73133	0.61538
11541.87375	0.61538
11538.01617	0.61538
11534.15859	1.44270
11530.30102	0.03967
11526.44344	0.52073
11522.58586	1.21515
11518.72828	1.21515
11514.87070	1.21515
11511.01312	1.21515
11507.15555	1.21515
11503.29797	1.21515
11499.44039	-1.52084
11495.58281	0.04090
11491.72523	1.77306
11487.86766	1.77306
11484.01008	1.77306
11480.15250	1.77306
11476.29492	1.77306
11472.43734	3.60046
11468.57977	3.03895
11464.72219	1.69034
11460.86461	-3.08707
11457.00703	-3.08707
11453.14945	-3.08707
11449.29187	0.14986
11445.43430	-1.77541
11441.57672	-1.77541
11437.71914	-1.77541
11433.86156	0.99699
11430.00398	0.99699
11426.14641	0.99699
11422.28883	1.82244
11418.43125	1.82244
11414.57367	1.82244
11410.71609	-0.49029
11406.85852	0.42206
11403.00094	0.66730
11399.14336	0.97003
11395.28578	0.75812
11391.42820	0.06297
11387.57062	0.06297
11383.71305	0.06297
11379.85547	2.45710
11375.99789	2.45710
11372.14031	0.46220
11368.28273	0.33168
11364.42516	0.33168
11360.56758	0.33168
11356.71000	0.33168
11352.85242	1.75275
11348.99484	1.75275
11345.13727	1.75275
11341.27969	2.83877
11337.42211	0.52023
11333.56453	-0.04584
11329.70695	-0.86295
11325.84937	-0.86295
11321.99180	-0.86295
11318.13422	0.88106
11314.27664	0.88106
11310.41906	0.88106
11306.56148	-0.46259
11302.70391	-0.13364
11298.84633	0.07486
11294.98875	1.43325
11291.13117	1.43325
11287.27359	1.43325
11283.41602	1.43325
11279.55844	1.43325
11275.70086	1.13088
11271.84328	0.17749
11267.98570	0.22576
11264.12812	0.22576
11260.27055	0.22576
11256.41297	0.22576
11252.55539	1.93388
11248.69781	0.06201
11244.84023	0.06201
11240.98266	0.06201
11237.12508	0.06201
11233.26750	-0.12665
11229.40992	-0.12665
11225.55234	-0.12665
11221.69477	2.08483
11217.83719	0.49649
11213.97961	0.49649
11210.12203	0.49649
11206.26445	2.85611
11202.40687	-0.33692
11198.54930	-0.44136
11194.69172	0.94502
11190.83414	0.94502
11186.97656	0.94502
11183.11898	0.78191
11179.26141	0.38767
11175.40383	-0.26695
11171.54625	-0.26695
11167.68867	-0.26695
11163.83109	-0.26695
11159.97352	-0.26695
11156.11594	0.46443
11152.25836	-0.20224
11148.40078	-0.21661
11144.54320	-0.11579
11140.68562	0.14459
11136.82805	0.14459
11132.97047	0.14459
11129.11289	0.14459
11125.25531	0.14459
11121.39773	0.14459
11117.54016	0.14459
11113.68258	0.14459
11109.82500	0.14459
11105.96742	-2.61336
11102.10984	-2.61336
11098.25227	-2.61336
11094.39469	2.57157
11090.53711	2.57157
11086.67953	2.57157
11082.82195	1.16455
11078.96437	0.86840
11075.10680	0.86840
11071.24922	2.41711
11067.39164	0.72246
11063.53406	0.24581
11059.67648	0.64879
11055.81891	-0.29291
11051.96133	-0.64868
11048.10375	0.87387
11044.24617	0.21087
11040.38859	0.73378
11036.53102	1.94341
11032.67344	0.65814
11028.81586	0.65814
11024.95828	0.65814
11021.10070	0.35275
11017.24312	0.05735
11013.38555	0.05735
11009.52797	0.05735
11005.67039	0.63481
11001.81281	1.04562
10997.95523	1.50409
10994.09766	0.15505
10990.24008	0.23081
10986.38250	0.53342
10982.52492	0.75137
10978.66734	0.21761
10974.80977	0.25246
10970.95219	0.25246
10967.09461	0.25246
10963.23703	-0.23847
10959.37945	-0.23847
10955.52187	-0.23847
10951.66430	1.50804
10947.80672	4.22869
10943.94914	4.22869
10940.09156	4.22869
10936.23398	4.22869
10932.37641	-0.67354
10928.51883	0.01385
10924.66125	0.34342
10920.80367	1.21010
10916.94609	1.21010
10913.08852	3.17089
10909.23094	1.81637
10905.37336	0.56721
10901.51578	0.56721
10897.65820	0.56721
10893.80062	0.56721
10889.94305	0.56721
10886.08547	1.54046
10882.22789	1.03165
10878.37031	3.42498
10874.51273	3.42498
10870.65516	0.83722
10866.79758	-0.16111
10862.94000	-0.16111
10859.08242	-0.16111
10855.22484	1.35309
10851.36727	1.48855
10847.50969	0.31105
10843.65211	0.45567
10839.79453	0.45567
10835.93695	0.45567
10832.07937	0.45567
10828.22180	0.45567
10824.36422	2.76051
10820.50664	2.76051
10816.64906	2.76051
10812.79148	2.76051
10808.93391	2.76051
10805.07633	2.76051
10801.21875	2.76051
10797.36117	2.76051
10793.50359	2.76051
10789.64602	1.46423
10785.78844	1.57722
10781.93086	3.03116
10778.07328	2.55156
10774.21570	2.55156
10770.35812	2.55156
10766.50055	2.55156
10762.64297	2.55156
10758.78539	2.62770
10754.92781	3.25355
10751.07023	3.25355
10747.21266	0.50064
10743.35508	-0.40806
10739.49750	-0.61427
10735.63992	-0.23910
10731.78234	-0.23910
10727.92477	-0.23910
10724.06719	1.05769
10720.20961	1.50624
10716.35203	1.50624
10712.49445	1.50624
10708.63687	3.03742
10704.77930	2.91798
10700.92172	2.91798
10697.06414	2.91798
10693.20656	-0.60994
10689.34898	-0.15337
10685.49141	-0.12621
10681.63383	-0.08333
10677.77625	-0.08333
10673.91867	-0.08333
10670.06109	-0.81447
10666.20352	-0.81447
10662.34594	-0.81447
10658.48836	-0.67459
10654.63078	-0.67459
10650.77320	-0.67459
10646.91562	0.05747
10643.05805	0.14575
10639.20047	0.32096
10635.34289	0.67113
10631.48531	0.67113
10627.62773	0.67113
10623.77016	1.06482
10619.91258	-0.78119
10616.05500	-1.16905
10612.19742	-1.16905
10608.33984	-1.16905
10604.48227	-1.16905
10600.62469	1.12919
10596.76711	0.56088
10592.90953	0.46796
10589.05195	-0.27083
10585.19437	-0.68055
10581.33680	-0.68055
10577.47922	-0.60997
10573.62164	-0.55328
10569.76406	-0.71571
10565.90648	-0.41339
10562.04891	-0.41339
10558.19133	-0.41339
10554.33375	-0.41339
10550.47617	3.76773
10546.61859	3.96786
10542.76102	1.75181
10538.90344	1.75181
10535.04586	1.75181
10531.18828	1.75181
10527.33070	-0.71370
10523.47312	-0.04947
10519.61555	0.20034
10515.75797	0.20034
10511.90039	0.02521
10508.04281	-0.87307
10504.18523	-0.87307
10500.32766	-0.87307
10496.47008	0.71187
10492.61250	-0.58028
10488.75492	-1.05348
10484.89734	-1.05348
10481.03977	-1.05348
10477.18219	-1.05348
10473.32461	0.77406
10469.46703	0.94484
10465.60945	0.94480
10461.75187	2.15348
10457.89430	7.57795
10454.03672	7.57795
10450.17914	7.57795
10446.32156	-0.12413
10442.46398	1.31959
10438.60641	2.68242
10434.74883	2.68242
10430.89125	2.68242
10427.03367	1.55260
10423.17609	-1.61937
10419.31852	-1.61937
10415.46094	-1.61937
10411.60336	-1.61937
10407.74578	-1.61937
10403.88820	-1.61937
10400.03062	0.88267
10396.17305	0.75896
10392.31547	0.66736
10388.45789	0.66736
10384.60031	0.66736
10380.74273	0.66736
10376.88516	0.66736
10373.02758	0.66736
10369.17000	0.66736
10365.31242	0.66736
10361.45484	0.66736
10357.59727	0.66736
10353.73969	0.66736
10349.88211	0.66736
10346.02453	0.66736
10342.16695	0.66736
10338.30937	-1.05622
10334.45180	0.32336
10330.59422	1.28735
10326.73664	1.28735
10322.87906	1.28735
10319.02148	1.28735
10315.16391	1.28735
10311.30633	3.52884
10307.44875	3.52884
10303.59117	3.52884
10299.73359	3.52884
10295.87602	-2.43525
10292.01844	-4.94799
10288.16086	-0.17576
10284.30328	-0.33069
10280.44570	-2.40365
10276.58812	-1.67470
10272.73055	-1.67470
10268.87297	-1.67470
10265.01539	-1.67470
10261.15781	-1.67470
10257.30023	-1.67470
10253.44266	-1.67470
10249.58508	-1.67470
10245.72750	0.23178
10241.86992	0.38845
10238.01234	0.78577
10234.15477	3.59824
10230.29719	4.71825
10226.43961	1.42817
10222.58203	1.20204
10218.72445	0.72640
10214.86687	0.34696
10211.00930	1.43984
10207.15172	1.43984
10203.29414	1.68906
10199.43656	0.50286
10195.57898	-0.23674
10191.72141	-0.25672
10187.86383	0.55681
10184.00625	1.06287
10180.14867	2.43144
10176.29109	1.87871
10172.43352	0.54943
10168.57594	0.59396
10164.71836	0.99642
10160.86078	1.81639
10157.00320	0.63760
10153.14562	-0.45957
10149.28805	-0.13774
10145.43047	0.06769
10141.57289	0.38303
10137.71531	0.38303
10133.85773	0.38303
10130.00016	0.81400
10126.14258	0.81400
10122.28500	0.81400
10118.42742	0.81400
10114.56984	0.81400
10110.71227	0.53673
10106.85469	0.17187
10102.99711	0.30783
10099.13953	3.20563
10095.28195	3.20563
10091.42437	3.20563
10087.56680	0.35354
10083.70922	0.35354
10079.85164	0.35354
10075.99406	-0.01233
10072.13648	-1.59017
10068.27891	0.16665
10064.42133	1.03261
10060.56375	1.69104
10056.70617	1.64769
10052.84859	0.48283
10048.99102	0.04704
10045.13344	0.10354
10041.27586	0.78886
10037.41828	1.25250
10033.56070	1.25250
10029.70312	1.25250
10025.84555	2.70873
10021.98797	2.69560
10018.13039	0.46463
10014.27281	0.65882
10010.41523	0.48469
10006.55766	0.08485
10002.70008	-0.07788
9998.84250	-0.39591
9994.98492	-0.27348
9991.12734	-0.25738
9987.26977	-1.03430
9983.41219	-1.03430
9979.55461	-1.91704
9975.69703	-2.79980
9971.83945	-2.79980
9967.98187	-2.79980
9964.12430	-2.79980
9960.26672	-1.05728
9956.40914	0.42324
9952.55156	0.50885
9948.69398	0.53183
9944.83641	0.70410
9940.97883	-0.35870
9937.12125	-0.24452
9933.26367	-0.24452
9929.40609	-0.24452
9925.54852	-0.24452
9921.69094	-1.16649
9917.83336	-0.41096
9913.97578	0.11019
9910.11820	1.08609
9906.26062	1.08609
9902.40305	1.08609
9898.54547	0.80108
9894.68789	0.24466
9890.83031	-0.32618
9886.97273	-0.32618
9883.11516	-0.32618
9879.25758	-0.32618
9875.40000	-2.87818
9871.54242	-0.69249
9867.68484	-0.69249
9863.82727	-0.69249
9859.96969	1.80468
9856.11211	0.65214
9852.25453	0.66278
9848.39695	0.66278
9844.53937	0.66278
9840.68180	0.66278
9836.82422	3.75895
9832.96664	1.35971
9829.10906	2.68938
9825.25148	2.50282
9821.39391	0.35771
9817.53633	0.03859
9813.67875	1.06298
9809.82117	5.01471
9805.96359	5.01471
9802.10602	-1.20388
9798.24844	-0.79011
9794.39086	-0.59761
9790.53328	-0.59761
9786.67570	2.06454
9782.81812	0.28527
9778.96055	0.08832
9775.10297	0.08832
9771.24539	0.08832
9767.38781	0.08832
9763.53023	0.08832
9759.67266	0.08832
9755.81508	0.08832
9751.95750	0.08832
9748.09992	-2.97681
9744.24234	-2.97681
9740.38477	-0.04047
9736.52719	0.11226
9732.66961	0.11226
9728.81203	0.11226
9724.95445	0.11226
9721.09687	0.11226
9717.23930	0.11226
9713.38172	0.11226
9709.52414	0.07022
9705.66656	-0.65864
9701.80898	-2.24872
9697.95141	-3.90596
9694.09383	-0.92456
9690.23625	-0.48002
9686.37867	-0.44447
9682.52109	-0.31807
9678.66352	0.01781
9674.80594	0.49335
9670.94836	0.21327
9667.09078	0.21327
9663.23320	0.21327
9659.37562	1.97299
9655.51805	0.37410
9651.66047	0.12326
9647.80289	0.52804
9643.94531	1.10190
9640.08773	1.35522
9636.23016	0.69886
9632.37258	0.46486
9628.51500	0.46486
9624.65742	0.46486
9620.79984	-0.83219
9616.94227	-0.31281
9613.08469	0.67355
9609.22711	0.67355
9605.36953	0.67355
9601.51195	0.67355
9597.65437	0.67355
9593.79680	-2.08633
9589.93922	-1.18489
9586.08164	1.67567
9582.22406	4.08021
9578.36648	0.71781
9574.50891	-0.33152
9570.65133	-0.30225
9566.79375	-0.30225
9562.93617	-0.30225
9559.07859	-0.30225
9555.22102	-0.30225
9551.36344	-0.30225
9547.50586	-0.30225
9543.64828	-0.30225
9539.79070	0.35943
9535.93312	0.14295
9532.07555	-0.23420
9528.21797	0.15772
9524.36039	0.15772
9520.50281	0.15772
9516.64523	0.15772
9512.78766	1.65126
9508.93008	-0.32495
9505.07250	-0.11848
9501.21492	0.18255
9497.35734	0.18250
9493.49977	0.78381
9489.64219	0.78381
9485.78461	0.78381
9481.92703	0.78381
9478.06945	0.78381
9474.21187	1.05779
9470.35430	0.25262
9466.49672	-0.07406
9462.63914	0.48066
9458.78156	0.48066
9454.92398	0.48066
9451.06641	0.08385
9447.20883	-0.26308
9443.35125	-0.26308
9439.49367	-0.26308
9435.63609	-0.26308
9431.77852	-0.26308
9427.92094	-0.26308
9424.06336	0.02339
9420.20578	0.08670
9416.34820	0.57561
9412.49062	0.68718
9408.63305	0.43601
9404.77547	-0.09237
9400.91789	-0.44821
9397.06031	0.12375
9393.20273	0.12375
9389.34516	0.00776
9385.48758	0.46467
9381.63000	0.80396
9377.77242	1.03542
9373.91484	-0.12926
9370.05727	-0.36413
9366.19969	-0.36413
9362.34211	-0.36413
9358.48453	1.24128
9354.62695	0.70009
9350.76937	0.36152
9346.91180	0.02736
9343.05422	0.44978
9339.19664	0.40413
9335.33906	-0.00708
9331.48148	-0.18043
9327.62391	0.43318
9323.76633	0.88390
9319.90875	0.16990
9316.05117	-0.11205
9312.19359	0.10852
9308.33602	0.77204
9304.47844	0.88477
9300.62086	1.38584
9296.76328	1.38584
9292.90570	-0.83370
9289.04812	-1.29203
9285.19055	-0.85869
9281.33297	0.12967
9277.47539	1.75592
9273.61781	0.62614
9269.76023	-0.26492
9265.90266	-0.05301
9262.04508	2.10105
9258.18750	1.38327
9254.32992	0.07710
9250.47234	-0.05620
9246.61477	-0.42183
9242.75719	-0.42183
9238.89961	-0.72430
9235.04203	-1.01304
9231.18445	-1.01304
9227.32687	-1.01304
9223.46930	-1.01304
9219.61172	2.14466
9215.75414	2.94216
9211.89656	2.32046
9208.03898	0.04180
9204.18141	-0.46719
9200.32383	0.12382
9196.46625	1.16912
9192.60867	0.28306
9188.75109	-0.20755
9184.89352	0.12319
9181.03594	0.27489
9177.17836	-0.26106
9173.32078	-0.48726
9169.46320	0.41052
9165.60562	1.00513
9161.74805	1.11029
9157.89047	0.49334
9154.03289	0.12444
9150.17531	-0.28661
9146.31773	-0.84284
9142.46016	0.03016
9138.60258	0.88952
9134.74500	0.88952
9130.88742	-0.39262
9127.02984	0.28338
9123.17227	-0.34857
9119.31469	1.39503
9115.45711	1.39503
9111.59953	1.39503
9107.74195	-0.20714
9103.88437	-0.29812
9100.02680	-0.18154
9096.16922	0.00463
9092.31164	-0.06525
9088.45406	-0.06525
9084.59648	-0.03042
9080.73891	0.10215
9076.88133	0.30322
9073.02375	0.23630
9069.16617	0.06448
9065.30859	0.26915
9061.45102	0.26915
9057.59344	0.05998
9053.73586	-0.34039
9049.87828	-0.22736
9046.02070	-0.22736
9042.16312	-0.22736
9038.30555	-0.22736
9034.44797	-0.22736
9030.59039	-3.72411
9026.73281	-0.28549
9022.87523	0.04552
9019.01766	-0.05955
9015.16008	-0.19444
9011.30250	-0.34808
9007.44492	-0.54873
9003.58734	-0.09675
8999.72977	-0.42273
8995.87219	-0.72813
8992.01461	-0.49541
8988.15703	-0.21948
8984.29945	-0.03788
8980.44187	-0.03613
8976.58430	-0.38512
8972.72672	-0.89933
8968.86914	-2.08526
8965.01156	0.05832
8961.15398	-0.11033
8957.29641	-0.10956
8953.43883	0.27903
8949.58125	0.27903
8945.72367	0.18670
8941.86609	2.58789
8938.00852	0.75636
8934.15094	0.39114
8930.29336	1.10520
8926.43578	1.48729
8922.57820	2.08358
8918.72062	3.44223
8914.86305	3.44223
8911.00547	1.74822
8907.14789	0.77100
8903.29031	0.48148
8899.43273	1.25930
8895.57516	1.23163
8891.71758	0.83110
8887.86000	0.32483
8884.00242	0.01075
8880.14484	-0.42362
8876.28727	0.26484
8872.42969	0.58769
8868.57211	0.58769
8864.71453	0.58769
8860.85695	-0.30308
8856.99937	-0.12734
8853.14180	0.09023
8849.28422	0.41035
8845.42664	0.29957
8841.56906	-0.52091
8837.71148	-0.52091
8833.85391	-0.52091
8829.99633	-0.52091
8826.13875	0.81683
8822.28117	0.60676
8818.42359	0.14257
8814.56602	-0.46284
8810.70844	0.42357
8806.85086	2.51364
8802.99328	0.55317
8799.13570	0.23816
8795.27812	0.71382
8791.42055	0.91572
8787.56297	0.48268
8783.70539	0.21542
8779.84781	0.32761
8775.99023	0.37580
8772.13266	0.43656
8768.27508	0.44653
8764.41750	0.53763
8760.55992	0.73804
8756.70234	1.98691
8752.84477	7.39817
8748.98719	1.86313
8745.12961	0.33068
8741.27203	0.30182
8737.41445	0.42543
8733.55687	1.10681
8729.69930	1.95019
8725.84172	0.47292
8721.98414	-2.73807
8718.12656	-0.02722
8714.26898	0.21313
8710.41141	0.64675
8706.55383	0.64675
8702.69625	1.26186
8698.83867	0.92789
8694.98109	0.75964
8691.12352	0.82070
8687.26594	1.20755
8683.40836	1.14461
8679.55078	0.63521
8675.69320	0.21854
8671.83562	0.35971
8667.97805	1.10237
8664.12047	1.20158
8660.26289	0.47492
8656.40531	0.31743
8652.54773	-0.17447
8648.69016	-0.55004
8644.83258	-0.07138
8640.97500	0.33249
8637.11742	0.83422
8633.25984	2.71156
8629.40227	3.03980
8625.54469	3.03980
8621.68711	3.03980
8617.82953	2.01954
8613.97195	0.74600
8610.11437	0.36696
8606.25680	0.12607
8602.39922	-0.18573
8598.54164	-0.19158
8594.68406	0.08044
8590.82648	0.16018
8586.96891	0.28752
8583.11133	0.65723
8579.25375	0.98139
8575.39617	0.36460
8571.53859	-0.23809
8567.68102	-0.43024
8563.82344	0.17909
8559.96586	0.70441
8556.10828	1.44266
8552.25070	0.97804
8548.39312	0.33620
8544.53555	0.13868
8540.67797	0.53463
8536.82039	2.25477
8532.96281	1.83124
8529.10523	0.29082
8525.24766	0.19908
8521.39008	0.47722
8517.53250	0.30540
8513.67492	-0.31939
8509.81734	-0.31939
8505.95977	-0.31939
8502.10219	-0.31939
8498.24461	-0.31939
8494.38703	-0.31939
8490.52945	2.05792
8486.67187	1.12621
8482.81430	0.74168
8478.95672	-1.04957
8475.09914	-1.04957
8471.24156	1.39846
8467.38398	-0.23369
8463.52641	-0.34768
8459.66883	0.23330
8455.81125	1.61537
8451.95367	3.61566
8448.09609	3.61566
8444.23852	3.61566
8440.38094	-0.38071
8436.52336	0.37958
8432.66578	0.84583
8428.80820	0.63383
8424.95062	0.89705
8421.09305	0.89705
8417.23547	4.21342
8413.37789	1.61595
8409.52031	0.45731
8405.66273	-0.33046
8401.80516	-0.37272
8397.94758	-0.21925
8394.09000	1.69106
8390.23242	1.69106
8386.37484	1.69106
8382.51727	2.38440
8378.65969	1.78652
8374.80211	0.98982
8370.94453	1.12377
8367.08695	1.35952
8363.22937	0.68113
8359.37180	0.33263
8355.51422	0.25078
8351.65664	0.30777
8347.79906	0.30777
8343.94148	0.30777
8340.08391	0.78699
8336.22633	0.02917
8332.36875	0.22411
8328.51117	0.85153
8324.65359	1.97118
8320.79602	1.97118
8316.93844	1.97118
8313.08086	1.97118
8309.22328	1.97118
8305.36570	1.97118
8301.50812	1.97118
8297.65055	1.97118
8293.79297	1.97118
8289.93539	1.97118
8286.07781	1.97118
8282.22023	1.97118
8278.36266	1.97118
8274.50508	-0.91302
8270.64750	-1.84202
8266.78992	-1.73408
8262.93234	-2.16771
8259.07477	-3.31316
8255.21719	-0.46809
8251.35961	-0.07455
8247.50203	-0.32041
8243.64445	-0.36985
8239.78687	-0.35924
8235.92930	-0.31795
8232.07172	-1.02176
8228.21414	-1.02176
8224.35656	-3.45886
8220.49898	-3.60942
8216.64141	-1.88445
8212.78383	-0.01766
8208.92625	-0.06756
8205.06867	-0.24079
8201.21109	0.06248
8197.35352	0.32870
8193.49594	0.97124
8189.63836	0.97124
8185.78078	2.11458
8181.92320	0.05825
8178.06562	0.24236
8174.20805	1.19034
8170.35047	2.60669
8166.49289	2.60669
8162.63531	2.60669
8158.77773	2.01084
8154.92016	1.07001
8151.06258	0.72959
8147.20500	0.78068
8143.34742	0.42833
8139.48984	0.00314
8135.63227	0.10738
8131.77469	3.08978
8127.91711	3.08978
8124.05953	-0.73813
8120.20195	1.78484
8116.34437	1.78484
8112.48680	1.78484
8108.62922	-0.11165
8104.77164	-0.18542
8100.91406	0.35645
8097.05648	0.72374
8093.19891	0.64672
8089.34133	0.17849
8085.48375	-0.94338
8081.62617	-0.05516
8077.76859	3.53209
8073.91102	1.40465
8070.05344	1.40465
8066.19586	1.40465
8062.33828	0.07784
8058.48070	-0.47078
8054.62312	-0.14901
8050.76555	1.50507
8046.90797	1.25405
8043.05039	0.45553
8039.19281	-0.20775
8035.33523	-0.43825
8031.47766	-0.04353
8027.62008	0.44333
8023.76250	1.56439
8019.90492	1.67602
8016.04734	-0.60947
8012.18977	0.71419
8008.33219	0.98168
8004.47461	0.46693
8000.61703	0.63346
7996.75945	0.94656
7992.90187	-0.02965
7989.04430	-0.01631
7985.18672	-0.01238
7981.32914	-0.12693
7977.47156	-0.04409
7973.61398	0.36669
7969.75641	1.57611
7965.89883	3.03383
7962.04125	1.79426
7958.18367	0.65750
7954.32609	0.11592
7950.46852	-0.07256
7946.61094	0.09898
7942.75336	0.27639
7938.89578	1.97671
7935.03820	1.69430
7931.18062	0.52493
7927.32305	0.16698
7923.46547	0.06202
7919.60789	0.07863
7915.75031	-0.14103
7911.89273	-0.22518
7908.03516	0.08813
7904.17758	0.34903
7900.32000	0.73010
7896.46242	0.73010
7892.60484	-1.91494
7888.74727	-1.54250
7884.88969	-1.54250
7881.03211	1.91968
7877.17453	0.09531
7873.31695	-0.65185
7869.45937	-1.04826
7865.60180	-0.98163
7861.74422	-0.33241
7857.88664	0.54093
7854.02906	0.85396
7850.17148	0.62319
7846.31391	0.45712
7842.45633	0.33145
7838.59875	0.24595
7834.74117	0.31724
7830.88359	0.60295
7827.02602	1.34659
7823.16844	2.05864
7819.31086	0.93179
7815.45328	0.25373
7811.59570	0.02080
7807.73812	0.06772
7803.88055	0.23112
7800.02297	0.47109
7796.16539	0.31662
7792.30781	0.10367
7788.45023	0.57101
7784.59266	0.96630
7780.73508	0.76257
7776.87750	0.79753
7773.01992	0.77704
7769.16234	0.63372
7765.30477	0.56797
7761.44719	0.56174
7757.58961	0.69969
7753.73203	0.83920
7749.87445	0.81093
7746.01687	0.57628
7742.15930	0.16386
7738.30172	-0.09884
7734.44414	-0.07404
7730.58656	0.47389
7726.72898	0.97859
7722.87141	1.18181
7719.01383	1.03590
7715.15625	0.92475
7711.29867	0.86375
7707.44109	0.78074
7703.58352	0.58607
7699.72594	0.36187
7695.86836	0.47141
7692.01078	0.70190
7688.15320	0.70320
7684.29562	0.55096
7680.43805	0.47477
7676.58047	0.67801
7672.72289	0.76508
7668.86531	0.59912
7665.00773	0.36397
7661.15016	0.24435
7657.29258	0.48736
7653.43500	0.55330
7649.57742	0.36519
7645.71984	0.38329
7641.86227	0.35335
7638.00469	0.40986
7634.14711	0.85483
7630.28953	0.97269
7626.43195	0.72722
7622.57437	0.74488
7618.71680	0.70055
7614.85922	0.52957
7611.00164	0.43516
7607.14406	0.31831
7603.28648	0.40488
7599.42891	0.58158
7595.57133	0.59528
7591.71375	0.62262
7587.85617	0.67951
7583.99859	0.52742
7580.14102	0.41106
7576.28344	0.49147
7572.42586	0.49478
7568.56828	0.49172
7564.71070	0.71080
7560.85312	0.83864
7556.99555	0.80627
7553.13797	0.77348
7549.28039	0.68711
7545.42281	0.59608
7541.56523	0.45180
7537.70766	0.34082
7533.85008	0.42165
7529.99250	0.61469
7526.13492	0.60821
7522.27734	0.49749
7518.41977	0.46800
7514.56219	0.41755
7510.70461	0.50274
7506.84703	0.68681
7502.98945	0.60192
7499.13187	0.43693
7495.27430	0.46043
7491.41672	0.58544
7487.55914	0.67765
7483.70156	0.67227
7479.84398	0.52173
7475.98641	0.50356
7472.12883	0.56959
7468.27125	0.51621
7464.41367	0.37808
7460.55609	0.40047
7456.69852	0.51715
7452.84094	0.50853
7448.98336	0.47151
7445.12578	0.51662
7441.26820	0.48704
7437.41062	0.45305
7433.55305	0.51578
7429.69547	0.54965
7425.83789	0.47647
7421.98031	0.47383
7418.12273	0.55761
7414.26516	0.50508
7410.40758	0.46425
7406.55000	0.51188
7402.69242	0.56193
7398.83484	0.62457
7394.97727	0.49601
7391.11969	0.33268
7387.26211	0.40574
7383.40453	0.62901
7379.54695	0.71542
7375.68937	0.58797
7371.83180	0.39727
7367.97422	0.37473
7364.11664	0.44434
7360.25906	0.46311
7356.40148	0.52307
7352.54391	0.54642
7348.68633	0.47343
7344.82875	0.47560
7340.97117	0.54465
7337.11359	0.60862
7333.25602	0.57629
7329.39844	0.54167
7325.54086	0.58031
7321.68328	0.50291
7317.82570	0.45859
7313.96812	0.46301
7310.11055	0.39918
7306.25297	0.44277
7302.39539	0.45253
7298.53781	0.42777
7294.68023	0.50969
7290.82266	0.48224
7286.96508	0.45241
7283.10750	0.46336
7279.24992	0.43638
7275.39234	0.50166
7271.53477	0.57061
7267.67719	0.47173
7263.81961	0.39217
7259.96203	0.53269
7256.10445	0.71064
7252.24687	0.58291
7248.38930	0.48321
7244.53172	0.54351
7240.67414	0.63257
7236.81656	0.69038
7232.95898	0.61618
7229.10141	0.49370
7225.24383	0.51529
7221.38625	0.55805
7217.52867	0.61678
7213.67109	0.65498
7209.81352	0.56787
7205.95594	0.49835
7202.09836	0.49562
7198.24078	0.48017
7194.38320	0.51368
7190.52562	0.53686
7186.66805	0.51179
7182.81047	0.55149
7178.95289	0.56499
7175.09531	0.46415
7171.23773	0.40021
7167.38016	0.48599
7163.52258	0.54583
7159.66500	0.49343
7155.80742	0.51066
7151.94984	0.56392
7148.09227	0.52459
7144.23469	0.46751
7140.37711	0.45198
7136.51953	0.46088
7132.66195	0.45331
7128.80437	0.38518
7124.94680	0.38340
7121.08922	0.44793
7117.23164	0.44724
7113.37406	0.44529
7109.51648	0.44732
7105.65891	0.45029
7101.80133	0.49423
7097.94375	0.48938
7094.08617	0.45096
7090.22859	0.45215
7086.37102	0.43561
7082.51344	0.45067
7078.65586	0.50169
7074.79828	0.50701
7070.94070	0.50272
7067.08312	0.44878
7063.22555	0.38994
7059.36797	0.41224
7055.51039	0.44676
7051.65281	0.51470
7047.79523	0.54013
7043.93766	0.45262
7040.08008	0.47518
7036.22250	0.55544
7032.36492	0.56955
7028.50734	0.56447
7024.64977	0.53318
7020.79219	0.49244
7016.93461	0.50722
7013.07703	0.54982
7009.21945	0.55943
7005.36187	0.52562
7001.50430	0.51126
6997.64672	0.53250
6993.78914	0.54706
6989.93156	0.53902
6986.07398	0.52365
6982.21641	0.53124
6978.35883	0.57011
6974.50125	0.58485
6970.64367	0.53056
6966.78609	0.48842
6962.92852	0.51290
6959.07094	0.54511
6955.21336	0.54445
6951.35578	0.52975
6947.49820	0.51148
6943.64062	0.51851
6939.78305	0.53048
6935.92547	0.49531
6932.06789	0.49991
6928.21031	0.54372
6924.35273	0.51420
6920.49516	0.49282
6916.63758	0.51544
6912.78000	0.50440
6908.92242	0.47645
6905.06484	0.47917
6901.20727	0.52905
6897.34969	0.55664
6893.49211	0.53995
6889.63453	0.57776
6885.77695	0.60610
6881.91937	0.56548
6878.06180	0.50870
6874.20422	0.48153
6870.34664	0.50889
6866.48906	0.51768
6862.63148	0.49401
6858.77391	0.49742
6854.91633	0.50844
6851.05875	0.50091
6847.20117	0.48690
6843.34359	0.50046
6839.48602	0.54841
6835.62844	0.59010
6831.77086	0.57485
6827.91328	0.51710
6824.05570	0.48505
6820.19812	0.48718
6816.34055	0.52759
6812.48297	0.56173
6808.62539	0.54758
6804.76781	0.53061
6800.91023	0.50692
6797.05266	0.49318
6793.19508	0.50630
6789.33750	0.49873
6785.47992	0.49941
6781.62234	0.54440
6777.76477	0.55208
6773.90719	0.52039
6770.04961	0.53442
6766.19203	0.55605
6762.33445	0.51545
6758.47687	0.47665
6754.61930	0.50800
6750.76172	0.54201
6746.90414	0.51320
6743.04656	0.48631
6739.18898	0.50458
6735.33141	0.50334
6731.47383	0.47924
6727.61625	0.47041
6723.75867	0.46236
6719.90109	0.45162
6716.04352	0.48625
6712.18594	0.54497
6708.32836	0.54493
6704.47078	0.51043
6700.61320	0.51298
6696.75562	0.53605
6692.89805	0.53075
6689.04047	0.49703
6685.18289	0.47698
6681.32531	0.50158
6677.46773	0.54334
6673.61016	0.56430
6669.75258	0.57905
6665.89500	0.57545
6662.03742	0.56204
6658.17984	0.54443
6654.32227	0.52279
6650.46469	0.55223
6646.60711	0.56323
6642.74953	0.51787
6638.89195	0.50149
6635.03437	0.50881
6631.17680	0.53591
6627.31922	0.55732
6623.46164	0.53905
6619.60406	0.51234
6615.74648	0.49519
6611.88891	0.49886
6608.03133	0.50263
6604.17375	0.51955
6600.31617	0.54571
6596.45859	0.52262
6592.60102	0.53178
6588.74344	0.57943
6584.88586	0.56197
6581.02828	0.51693
6577.17070	0.48840
6573.31312	0.47347
6569.45555	0.48068
6565.59797	0.50696
6561.74039	0.53254
6557.88281	0.53432
6554.02523	0.52721
6550.16766	0.50605
6546.31008	0.47010
6542.45250	0.47637
6538.59492	0.50517
6534.73734	0.50958
6530.87977	0.51541
6527.02219	0.53197
6523.16461	0.52448
6519.30703	0.50718
6515.44945	0.51508
6511.59187	0.52140
6507.73430	0.50979
6503.87672	0.50505
6500.01914	0.50448
6496.16156	0.50330
6492.30398	0.50249
6488.44641	0.49408
6484.58883	0.49007
6480.73125	0.50676
6476.87367	0.51878
6473.01609	0.49876
6469.15852	0.47647
6465.30094	0.49326
6461.44336	0.52481
6457.58578	0.52478
6453.72820	0.52504
6449.87062	0.53873
6446.01305	0.52947
6442.15547	0.52051
6438.29789	0.52900
6434.44031	0.52655
6430.58273	0.52210
6426.72516	0.52780
6422.86758	0.51238
6419.01000	0.50079
6415.15242	0.52843
6411.29484	0.53702
6407.43727	0.51399
6403.57969	0.50643
6399.72211	0.50140
6395.86453	0.49409
6392.00695	0.49268
6388.14937	0.50383
6384.29180	0.53403
6380.43422	0.54002
6376.57664	0.53496
6372.71906	0.57262
6368.86148	0.57560
6365.00391	0.51757
6361.14633	0.50003
6357.28875	0.51353
6353.43117	0.51680
6349.57359	0.52065
6345.71602	0.50857
6341.85844	0.49894
6338.00086	0.51496
6334.14328	0.52734
6330.28570	0.51704
6326.42812	0.50487
6322.57055	0.51627
6318.71297	0.52604
6314.85539	0.51854
6310.99781	0.51156
6307.14023	0.50037
6303.28266	0.50400
6299.42508	0.52713
6295.56750	0.54487
6291.70992	0.54482
6287.85234	0.50906
6283.99477	0.49065
6280.13719	0.51578
6276.27961	0.51615
6272.42203	0.50204
6268.56445	0.50382
6264.70687	0.50899
6260.84930	0.51311
6256.99172	0.51328
6253.13414	0.53171
6249.27656	0.55256
6245.41898	0.53628
6241.56141	0.50636
6237.70383	0.50163
6233.84625	0.50850
6229.98867	0.50545
6226.13109	0.52371
6222.27352	0.54147
6218.41594	0.52047
6214.55836	0.49925
6210.70078	0.49628
6206.84320	0.51437
6202.98562	0.52637
6199.12805	0.51635
6195.27047	0.52348
6191.41289	0.53118
6187.55531	0.52426
6183.69773	0.51972
6179.84016	0.52339
6175.98258	0.54841
6172.12500	0.55697
6168.26742	0.52505
6164.40984	0.50779
6160.55227	0.51144
6156.69469	0.50704
6152.83711	0.50868
6148.97953	0.50114
6145.12195	0.48679
6141.26437	0.50320
6137.40680	0.51919
6133.54922	0.51340
6129.69164	0.51041
6125.83406	0.50124
6121.97648	0.50097
6118.11891	0.51481
6114.26133	0.51672
6110.40375	0.51974
6106.54617	0.52252
6102.68859	0.50812
6098.83102	0.50202
6094.97344	0.51224
6091.11586	0.51346
6087.25828	0.50796
6083.40070	0.50859
6079.54312	0.50407
6075.68555	0.50529
6071.82797	0.52375
6067.97039	0.53013
6064.11281	0.52246
6060.25523	0.51885
6056.39766	0.50722
6052.54008	0.49913
6048.68250	0.50758
6044.82492	0.50740
6040.96734	0.50447
6037.10977	0.50557
6033.25219	0.50756
6029.39461	0.52157
6025.53703	0.50870
6021.67945	0.48672
6017.82187	0.50745
6013.96430	0.52486
6010.10672	0.51524
6006.24914	0.50896
6002.39156	0.51838
5998.53398	0.52221
5994.67641	0.50582
5990.81883	0.50673
5986.96125	0.51291
5983.10367	0.50359
5979.24609	0.50181
5975.38852	0.50002
5971.53094	0.49889
5967.67336	0.50072
5963.81578	0.50798
5959.95820	0.52405
5956.10062	0.51729
5952.24305	0.50046
5948.38547	0.50738
5944.52789	0.52091
5940.67031	0.52543
5936.81273	0.52137
5932.95516	0.51688
5929.09758	0.51264
5925.24000	0.49795
5921.38242	0.49467
5917.52484	0.50082
5913.66727	0.49970
5909.80969	0.51426
5905.95211	0.52703
5902.09453	0.52815
5898.23695	0.53867
5894.37937	0.53989
5890.52180	0.52954
5886.66422	0.51554
5882.80664	0.51219
5878.94906	0.52572
5875.09148	0.52619
5871.23391	0.52354
5867.37633	0.52627
5863.51875	0.51445
5859.66117	0.50562
5855.80359	0.50831
5851.94602	0.51002
5848.08844	0.50749
5844.23086	0.50589
5840.37328	0.51078
5836.51570	0.51435
5832.65812	0.51660
5828.80055	0.52216
5824.94297	0.52559
5821.08539	0.52669
5817.22781	0.51981
5813.37023	0.50922
5809.51266	0.50439
5805.65508	0.50191
5801.79750	0.51145
5797.93992	0.52511
5794.08234	0.51634
5790.22477	0.50329
5786.36719	0.50924
5782.50961	0.51759
5778.65203	0.51322
5774.79445	0.50608
5770.93687	0.50222
5767.07930	0.49932
5763.22172	0.50773
5759.36414	0.52257
5755.50656	0.51976
5751.64898	0.50998
5747.79141	0.50663
5743.93383	0.50118
5740.07625	0.50664
5736.21867	0.51793
5732.36109	0.50917
5728.50352	0.49720
5724.64594	0.50121
5720.78836	0.50933
5716.93078	0.51153
5713.07320	0.50491
5709.21562	0.50159
5705.35805	0.51077
5701.50047	0.51274
5697.64289	0.50106
5693.78531	0.49147
5689.92773	0.48995
5686.07016	0.50115
5682.21258	0.52227
5678.35500	0.52301
5674.49742	0.50309
5670.63984	0.51015
5666.78227	0.53366
5662.92469	0.52779
5659.06711	0.50941
5655.20953	0.50589
5651.35195	0.51926
5647.49437	0.52942
5643.63680	0.51804
5639.77922	0.50897
5635.92164	0.51201
5632.06406	0.51523
5628.20648	0.51687
5624.34891	0.51560
5620.49133	0.51071
5616.63375	0.50431
5612.77617	0.50902
5608.91859	0.52306
5605.06102	0.52480
5601.20344	0.51878
5597.34586	0.51531
5593.48828	0.50795
5589.63070	0.50331
5585.77312	0.50903
5581.91555	0.51949
5578.05797	0.52653
5574.20039	0.52610
5570.34281	0.51490
5566.48523	0.49722
5562.62766	0.49642
5558.77008	0.51034
5554.91250	0.51628
5551.05492	0.51875
5547.19734	0.51337
5543.33977	0.50178
5539.48219	0.50082
5535.62461	0.49803
5531.76703	0.49559
5527.90945	0.50611
5524.05187	0.51492
5520.19430	0.51726
5516.33672	0.51861
5512.47914	0.51568
5508.62156	0.50744
5504.76398	0.50275
5500.90641	0.51100
5497.04883	0.51908
5493.19125	0.51143
5489.33367	0.50635
5485.47609	0.51143
5481.61852	0.50872
5477.76094	0.50202
5473.90336	0.50442
5470.04578	0.50942
5466.18820	0.50739
5462.33062	0.50890
5458.47305	0.51477
5454.61547	0.51206
5450.75789	0.51224
5446.90031	0.51544
5443.04273	0.50916
5439.18516	0.50516
5435.32758	0.50604
5431.47000	0.50657
5427.61242	0.50743
5423.75484	0.50985
5419.89727	0.51409
5416.03969	0.51468
5412.18211	0.50833
5408.32453	0.50556
5404.46695	0.51233
5400.60937	0.51856
5396.75180	0.51315
5392.89422	0.50480
5389.03664	0.50658
5385.17906	0.51614
5381.32148	0.52559
5377.46391	0.52277
5373.60633	0.51080
5369.74875	0.51004
5365.89117	0.51574
5362.03359	0.52019
5358.17602	0.52359
5354.31844	0.51771
5350.46086	0.51041
5346.60328	0.51084
5342.74570	0.50722
5338.88812	0.50326
5335.03055	0.50253
5331.17297	0.49820
5327.31539	0.50131
5323.45781	0.51339
5319.60023	0.51303
5315.74266	0.50204
5311.88508	0.49958
5308.02750	0.50496
5304.16992	0.51257
5300.31234	0.51807
5296.45477	0.51225
5292.59719	0.50569
5288.73961	0.50781
5284.88203	0.50803
5281.02445	0.50921
5277.16687	0.51709
5273.30930	0.52838
5269.45172	0.53574
5265.59414	0.52731
5261.73656	0.51589
5257.87898	0.51344
5254.02141	0.50717
5250.16383	0.50146
5246.30625	0.50056
5242.44867	0.50222
5238.59109	0.51191
5234.73352	0.51689
5230.87594	0.50867
5227.01836	0.50698
5223.16078	0.51239
5219.30320	0.51072
5215.44562	0.51148
5211.58805	0.51974
5207.73047	0.52199
5203.87289	0.51628
5200.01531	0.51293
5196.15773	0.50918
5192.30016	0.50435
5188.44258	0.50301
5184.58500	0.50833
5180.72742	0.51416
5176.86984	0.51326
5173.01227	0.50854
5169.15469	0.50433
5165.29711	0.50831
5161.43953	0.52048
5157.58195	0.52393
5153.72437	0.51792
5149.86680	0.51455
5146.00922	0.51486
5142.15164	0.51829
5138.29406	0.51899
5134.43648	0.51596
5130.57891	0.51646
5126.72133	0.51619
5122.86375	0.51345
5119.00617	0.50871
5115.14859	0.50487
5111.29102	0.51166
5107.43344	0.51765
5103.57586	0.51427
5099.71828	0.51467
5095.86070	0.51891
5092.00312	0.51654
5088.14555	0.51070
5084.28797	0.51395
5080.43039	0.51708
5076.57281	0.51213
5072.71523	0.51433
5068.85766	0.51522
5065.00008	0.51062
5061.14250	0.51610
5057.28492	0.51876
5053.42734	0.51071
5049.56977	0.50569
5045.71219	0.50699
5041.85461	0.50959
5037.99703	0.50743
5034.13945	0.50548
5030.28187	0.50885
5026.42430	0.51133
5022.56672	0.51703
5018.70914	0.52600
5014.85156	0.52563
5010.99398	0.51861
5007.13641	0.51528
5003.27883	0.51692
4999.42125	0.51883
4995.56367	0.51693
4991.70609	0.51054
4987.84852	0.50525
4983.99094	0.50877
4980.13336	0.51315
4976.27578	0.51375
4972.41820	0.51838
4968.56062	0.52030
4964.70305	0.51600
4960.84547	0.51448
4956.98789	0.51618
4953.13031	0.51699
4949.27273	0.51407
4945.41516	0.51118
4941.55758	0.51420
4937.70000	0.51730
4933.84242	0.51621
4929.98484	0.51360
4926.12727	0.51175
4922.26969	0.51458
4918.41211	0.51625
4914.55453	0.51298
4910.69695	0.51221
4906.83937	0.51249
4902.98180	0.51358
4899.12422	0.51387
4895.26664	0.50954
4891.40906	0.50903
4887.55148	0.51196
4883.69391	0.51586
4879.83633	0.52269
4875.97875	0.52203
4872.12117	0.51448
4868.26359	0.51143
4864.40602	0.50918
4860.54844	0.50916
4856.69086	0.51687
4852.83328	0.51799
4848.97570	0.51301
4845.11812	0.51643
4841.26055	0.51572
4837.40297	0.50979
4833.54539	0.51521
4829.68781	0.52304
4825.83023	0.52201
4821.97266	0.51805
4818.11508	0.51882
4814.25750	0.52120
4810.39992	0.51808
4806.54234	0.51820
4802.68477	0.52214
4798.82719	0.51768
4794.96961	0.51454
4791.11203	0.51784
4787.25445	0.51645
4783.39687	0.51261
4779.53930	0.51151
4775.68172	0.51416
4771.82414	0.51806
4767.96656	0.52047
4764.10898	0.52377
4760.25141	0.52271
4756.39383	0.51827
4752.53625	0.51667
4748.67867	0.51265
4744.82109	0.50863
4740.96352	0.50856
4737.10594	0.50862
4733.24836	0.51186
4729.39078	0.51771
4725.53320	0.51846
4721.67562	0.51538
4717.81805	0.51449
4713.96047	0.51399
4710.10289	0.51240
4706.24531	0.51459
4702.38773	0.51775
4698.53016	0.51504
4694.67258	0.51118
4690.81500	0.51172
4686.95742	0.51278
4683.09984	0.51372
4679.24227	0.51644
4675.38469	0.51566
4671.52711	0.51020
4667.66953	0.50748
4663.81195	0.51030
4659.95437	0.51472
4656.09680	0.51734
4652.23922	0.51715
4648.38164	0.51383
4644.52406	0.50992
4640.66648	0.50821
4636.80891	0.50905
4632.95133	0.51322
4629.09375	0.51520
4625.23617	0.51177
4621.37859	0.51315
4617.52102	0.51871
4613.66344	0.51844
4609.80586	0.51474
4605.94828	0.51358
4602.09070	0.51786
4598.23312	0.52109
4594.37555	0.51712
4590.51797	0.51513
4586.66039	0.51571
4582.80281	0.51296
4578.94523	0.51174
4575.08766	0.51457
4571.23008	0.51861
4567.37250	0.51908
4563.51492	0.51502
4559.65734	0.51196
4555.79977	0.51375
4551.94219	0.51796
4548.08461	0.51904
4544.22703	0.51796
4540.36945	0.51564
4536.51187	0.51215
4532.65430	0.51192
4528.79672	0.51279
4524.93914	0.51334
4521.08156	0.51588
4517.22398	0.51843
4513.36641	0.51683
4509.50883	0.51227
4505.65125	0.51548
4501.79367	0.52285
4497.93609	0.52063
4494.07852	0.51684
4490.22094	0.51883
4486.36336	0.51870
4482.50578	0.51794
4478.64820	0.51915
4474.79062	0.51676
4470.93305	0.51689
4467.07547	0.52113
4463.21789	0.51948
4459.36031	0.51906
4455.50273	0.52209
4451.64516	0.51762
4447.78758	0.51237
4443.93000	0.51323
4440.07242	0.51574
4436.21484	0.51653
4432.35727	0.51490
4428.49969	0.51703
4424.64211	0.52112
4420.78453	0.51919
4416.92695	0.51674
4413.06937	0.51565
4409.21180	0.51525
4405.35422	0.51937
4401.49664	0.52088
4397.63906	0.51872
4393.78148	0.51984
4389.92391	0.51950
4386.06633	0.51581
4382.20875	0.51651
4378.35117	0.52118
4374.49359	0.52159
4370.63602	0.52022
4366.77844	0.52031
4362.92086	0.51662
4359.06328	0.51542
4355.20570	0.52088
4351.34812	0.52272
4347.49055	0.51958
4343.63297	0.51755
4339.77539	0.51770
4335.91781	0.51788
4332.06023	0.51695
4328.20266	0.51757
4324.34508	0.51962
4320.48750	0.51976
4316.62992	0.51860
4312.77234	0.51811
4308.91477	0.51749
4305.05719	0.51624
4301.19961	0.51721
4297.34203	0.52005
4293.48445	0.52043
4289.62687	0.51834
4285.76930	0.51599
4281.91172	0.51607
4278.05414	0.51925
4274.19656	0.52084
4270.33898	0.51932
4266.48141	0.51683
4262.62383	0.51431
4258.76625	0.51404
4254.90867	0.51708
4251.05109	0.51870
4247.19352	0.51694
4243.33594	0.51774
4239.47836	0.52132
4235.62078	0.52253
4231.76320	0.52082
4227.90562	0.51865
4224.04805	0.51872
4220.19047	0.51922
4216.33289	0.51978
4212.47531	0.52090
4208.61773	0.51915
4204.76016	0.51936
4200.90258	0.52147
4197.04500	0.51881
4193.18742	0.51705
4189.32984	0.51723
4185.47227	0.51583
4181.61469	0.51625
4177.75711	0.51792
4173.89953	0.51928
4170.04195	0.51937
4166.18437	0.51838
4162.32680	0.51887
4158.46922	0.51867
4154.61164	0.51707
4150.75406	0.51655
4146.89648	0.51745
4143.03891	0.51800
4139.18133	0.51750
4135.32375	0.51918
4131.46617	0.52143
4127.60859	0.52162
4123.75102	0.52102
4119.89344	0.51890
4116.03586	0.51788
4112.17828	0.51849
4108.32070	0.51842
4104.46312	0.51943
4100.60555	0.51930
4096.74797	0.51796
4092.89039	0.51993
4089.03281	0.52164
4085.17523	0.51997
4081.31766	0.51901
4077.46008	0.51851
4073.60250	0.51789
4069.74492	0.52042
4065.88734	0.52221
4062.02977	0.51954
4058.17219	0.51817
4054.31461	0.52080
4050.45703	0.52197
4046.59945	0.51931
4042.74187	0.51832
4038.88430	0.51979
4035.02672	0.51777
4031.16914	0.51522
4027.31156	0.51738
4023.45398	0.51952
4019.59641	0.51802
4015.73883	0.51658
4011.88125	0.51803
4008.02367	0.51890
4004.16609	0.51727
4000.30852	0.51759
3996.45094	0.51896
3992.59336	0.51842
3988.73578	0.51815
3984.87820	0.51833
3981.02062	0.51879
3977.16305	0.51948
3973.30547	0.51944
3969.44789	0.51950
3965.59031	0.51918
3961.73273	0.51930
3957.87516	0.52128
3954.01758	0.52167
3950.16000	0.51901
3946.30242	0.51713
3942.44484	0.51697
3938.58727	0.51766
3934.72969	0.51940
3930.87211	0.52012
3927.01453	0.52034
3923.15695	0.52076
3919.29937	0.51897
3915.44180	0.51819
3911.58422	0.51939
3907.72664	0.52054
3903.86906	0.52229
3900.01148	0.52082
3896.15391	0.51772
3892.29633	0.51684
3888.43875	0.51957
3884.58117	0.52276
3880.72359	0.52295
3876.86602	0.52258
3873.00844	0.52134
3869.15086	0.51847
3865.29328	0.51759
3861.43570	0.51849
3857.57812	0.51977
3853.72055	0.51773
3849.86297	0.51811
3846.00539	0.52261
3842.14781	0.52524
3838.29023	0.52304
3834.43266	0.51988
3830.57508	0.51740
3826.71750	0.51734
3822.85992	0.51910
3819.00234	0.52103
3815.14477	0.52161
3811.28719	0.52155
3807.42961	0.52072
3803.57203	0.51743
3799.71445	0.51472
3795.85687	0.51581
3791.99930	0.51882
3788.14172	0.52146
3784.28414	0.52092
3780.42656	0.51860
3776.56898	0.51813
3772.71141	0.51880
3768.85383	0.52026
3764.99625	0.52143
3761.13867	0.52044
3757.28109	0.51824
3753.42352	0.51733
3749.56594	0.51661
3745.70836	0.51663
3741.85078	0.52088
3737.99320	0.52554
3734.13562	0.52037
3730.27805	0.51231
3726.42047	0.51280
3722.56289	0.51816
3718.70531	0.51921
3714.84773	0.51680
3710.99016	0.51389
3707.13258	0.51483
3703.27500	0.51698
3699.41742	0.51702
3695.55984	0.51642
3691.70227	0.51563
3687.84469	0.51405
3683.98711	0.51662
3680.12953	0.51988
3676.27195	0.51980
3672.41437	0.51986
3668.55680	0.52002
3664.69922	0.51775
3660.84164	0.51660
3656.98406	0.51613
3653.12648	0.51477
3649.26891	0.51409
3645.41133	0.51539
3641.55375	0.51673
3637.69617	0.51807
3633.83859	0.51858
3629.98102	0.51779
3626.12344	0.51572
3622.26586	0.51523
3618.40828	0.51618
3614.55070	0.51517
3610.69312	0.51359
3606.83555	0.51442
3602.97797	0.51554
3599.12039	0.51478
3595.26281	0.51364
3591.40523	0.51528
3587.54766	0.51779
3583.69008	0.51781
3579.83250	0.51720
3575.97492	0.51674
3572.11734	0.51756
3568.25977	0.51878
3564.40219	0.51655
3560.54461	0.51570
3556.68703	0.51737
3552.82945	0.51796
3548.97187	0.51696
3545.11430	0.51639
3541.25672	0.51653
3537.39914	0.51699
3533.54156	0.51798
3529.68398	0.51869
3525.82641	0.51810
3521.96883	0.51727
3518.11125	0.51691
3514.25367	0.51697
3510.39609	0.51786
3506.53852	0.51862
3502.68094	0.51833
3498.82336	0.51729
3494.96578	0.51653
3491.10820	0.51704
3487.25062	0.51763
3483.39305	0.51732
3479.53547	0.51714
3475.67789	0.51696
3471.82031	0.51663
3467.96273	0.51653
3464.10516	0.51617
3460.24758	0.51627
3456.39000	0.51715
3452.53242	0.51749
3448.67484	0.51745
3444.81727	0.51738
3440.95969	0.51710
3437.10211	0.51700
3433.24453	0.51714
3429.38695	0.51771
3425.52937	0.51858
3421.67180	0.51798
3417.81422	0.51630
3413.95664	0.51663
3410.09906	0.51769
3406.24148	0.51706
3402.38391	0.51668
3398.52633	0.51696
3394.66875	0.51660
3390.81117	0.51604
3386.95359	0.51585
3383.09602	0.51616
3379.23844	0.51641
3375.38086	0.51681
3371.52328	0.51791
3367.66570	0.51833
3363.80812	0.51770
3359.95055	0.51747
3356.09297	0.51743
3352.23539	0.51657
3348.37781	0.51598
3344.52023	0.51636
3340.66266	0.51663
3336.80508	0.51692
3332.94750	0.51711
3329.08992	0.51677
3325.23234	0.51648
3321.37477	0.51634
3317.51719	0.51665
3313.65961	0.51704
3309.80203	0.51681
3305.94445	0.51680
3302.08687	0.51668
3298.22930	0.51628
3294.37172	0.51650
3290.51414	0.51674
3286.65656	0.51649
3282.79898	0.51630
3278.94141	0.51648
3275.08383	0.51635
3271.22625	0.51589
3267.36867	0.51583
3263.51109	0.51581
3259.65352	0.51592
3255.79594	0.51597
3251.93836	0.51579
3248.08078	0.51635
3244.22320	0.51690
3240.36562	0.51681
3236.50805	0.51670
3232.65047	0.51648
3228.79289	0.51646
3224.93531	0.51656
3221.07773	0.51624
3217.22016	0.51586
3213.36258	0.51586
3209.50500	0.51606
3205.64742	0.51632
3201.78984	0.51640
3197.93227	0.51571
3194.07469	0.51536
3190.21711	0.51580
3186.35953	0.51558
3182.50195	0.51559
3178.64437	0.51628
3174.78680	0.51602
3170.92922	0.51543
3167.07164	0.51546
3163.21406	0.51552
3159.35648	0.51539
3155.49891	0.51532
3151.64133	0.51561
3147.78375	0.51603
3143.92617	0.51587
3140.06859	0.51590
3136.21102	0.51669
3132.35344	0.51644
3128.49586	0.51558
3124.63828	0.51556
3120.78070	0.51544
3116.92312	0.51527
3113.06555	0.51524
3109.20797	0.51500
3105.35039	0.51564
3101.49281	0.51676
3097.63523	0.51648
3093.77766	0.51574
3089.92008	0.51612
3086.06250	0.51612
3082.20492	0.51559
3078.34734	0.51578
3074.48977	0.51585
3070.63219	0.51583
3066.77461	0.51604
3062.91703	0.51567
3059.05945	0.51563
3055.20187	0.51636
3051.34430	0.51656
3047.48672	0.51591
3043.62914	0.51533
3039.77156	0.51553
3035.91398	0.51585
3032.05641	0.51562
3028.19883	0.51542
3024.34125	0.51540
3020.48367	0.51549
3016.62609	0.51564
3012.76852	0.51519
3008.91094	0.51467
3005.05336	0.51498
3001.19578	0.51554
2997.33820	0.51579
2993.48062	0.51551
2989.62305	0.51484
2985.76547	0.51459
2981.90789	0.51453
2978.05031	0.51423
2974.19273	0.51454
2970.33516	0.51503
2966.47758	0.51459
2962.62000	0.51418
2958.76242	0.51408
2954.90484	0.51371
2951.04727	0.51380
2947.18969	0.51393
2943.33211	0.51318
2939.47453	0.51260
2935.61695	0.51276
2931.75937	0.51266
2927.90180	0.51240
2924.04422	0.51243
2920.18664	0.51225
2916.32906	0.51219
2912.47148	0.51256
2908.61391	0.51298
2904.75633	0.51359
2900.89875	0.51401
2897.04117	0.51402
2893.18359	0.51395
2889.32602	0.51371
2885.46844	0.51373
2881.61086	0.51416
2877.75328	0.51436
2873.89570	0.51419
2870.03812	0.51391
2866.18055	0.51390
2862.32297	0.51402
2858.46539	0.51405
2854.60781	0.51385
2850.75023	0.51361
2846.89266	0.51405
2843.03508	0.51473
2839.17750	0.51478
2835.31992	0.51479
2831.46234	0.51499
2827.60477	0.51500
2823.74719	0.51515
2819.88961	0.51539
2816.03203	0.51520
2812.17445	0.51497
2808.31687	0.51524
2804.45930	0.51559
2800.60172	0.51543
2796.74414	0.51520
2792.88656	0.51491
2789.02898	0.51459
2785.17141	0.51499
2781.31383	0.51539
2777.45625	0.51522
2773.59867	0.51536
2769.74109	0.51555
2765.88352	0.51519
2762.02594	0.51482
2758.16836	0.51492
2754.31078	0.51522
2750.45320	0.51530
2746.59562	0.51503
2742.73805	0.51474
2738.88047	0.51478
2735.02289	0.51500
2731.16531	0.51519
2727.30773	0.51521
2723.45016	0.51472
2719.59258	0.51423
2715.73500	0.51446
2711.87742	0.51479
2708.01984	0.51470
2704.16227	0.51481
2700.30469	0.51516
2696.44711	0.51518
2692.58953	0.51503
2688.73195	0.51488
2684.87437	0.51473
2681.01680	0.51458
2677.15922	0.51442
2673.30164	0.51460
2669.44406	0.51469
2665.58648	0.51438
2661.72891	0.51450
2657.87133	0.51474
2654.01375	0.51446
2650.15617	0.51431
2646.29859	0.51439
2642.44102	0.51422
2638.58344	0.51412
2634.72586	0.51448
2630.86828	0.51467
2627.01070	0.51444
2623.15312	0.51448
2619.29555	0.51446
2615.43797	0.51414
2611.58039	0.51403
2607.72281	0.51428
2603.86523	0.51483
2600.00766	0.51515
2596.15008	0.51496
2592.29250	0.51480
2588.43492	0.51477
2584.57734	0.51477
2580.71977	0.51471
2576.86219	0.51454
2573.00461	0.51458
2569.14703	0.51464
2565.28945	0.51424
2561.43187	0.51395
2557.57430	0.51418
2553.71672	0.51435
2549.85914	0.51430
2546.00156	0.51417
2542.14398	0.51411
2538.28641	0.51446
2534.42883	0.51454
2530.57125	0.51426
2526.71367	0.51458
2522.85609	0.51481
2518.99852	0.51445
2515.14094	0.51429
2511.28336	0.51431
2507.42578	0.51440
2503.56820	0.51449
2499.71062	0.51433
2495.85305	0.51431
2491.99547	0.51438
2488.13789	0.51433
2484.28031	0.51446
2480.42273	0.51440
2476.56516	0.51398
2472.70758	0.51393
2468.85000	0.51418
2464.99242	0.51417
2461.13484	0.51417
2457.27727	0.51429
2453.41969	0.51410
2449.56211	0.51393
2445.70453	0.51411
2441.84695	0.51420
2437.98937	0.51423
2434.13180	0.51436
2430.27422	0.51436
2426.41664	0.51426
2422.55906	0.51430
2418.70148	0.51436
2414.84391	0.51430
2410.98633	0.51440
2407.12875	0.51459
2403.27117	0.51450
2399.41359	0.51447
2395.55602	0.51459
2391.69844	0.51431
2387.84086	0.51323
2383.98328	0.51101
2380.12570	0.50723
2376.26812	0.50187
2372.41055	0.49589
2368.55297	0.49300
2364.69539	0.49687
2360.83781	0.49882
2356.98023	0.49377
2353.12266	0.49273
2349.26508	0.49224
2345.40750	0.48853
2341.54992	0.48590
2337.69234	0.48852
2333.83477	0.48887
2329.97719	0.49136
2326.11961	0.49484
2322.26203	0.49636
2318.40445	0.49869
2314.54687	0.50080
2310.68930	0.50210
2306.83172	0.50407
2302.97414	0.50607
2299.11656	0.50750
2295.25898	0.50890
2291.40141	0.51033
2287.54383	0.51160
2283.68625	0.51269
2279.82867	0.51306
2275.97109	0.51254
2272.11352	0.51237
2268.25594	0.51298
2264.39836	0.51330
2260.54078	0.51326
2256.68320	0.51335
2252.82562	0.51340
2248.96805	0.51346
2245.11047	0.51374
2241.25289	0.51397
2237.39531	0.51400
2233.53773	0.51403
2229.68016	0.51421
2225.82258	0.51447
2221.96500	0.51445
2218.10742	0.51419
2214.24984	0.51404
2210.39227	0.51395
2206.53469	0.51389
2202.67711	0.51391
2198.81953	0.51402
2194.96195	0.51419
2191.10437	0.51395
2187.24680	0.51366
2183.38922	0.51379
2179.53164	0.51379
2175.67406	0.51398
2171.81648	0.51437
2167.95891	0.51416
2164.10133	0.51390
2160.24375	0.51388
2156.38617	0.51382
2152.52859	0.51382
2148.67102	0.51388
2144.81344	0.51399
2140.95586	0.51408
2137.09828	0.51403
2133.24070	0.51403
2129.38312	0.51397
2125.52555	0.51374
2121.66797	0.51388
2117.81039	0.51428
2113.95281	0.51423
2110.09523	0.51392
2106.23766	0.51391
2102.38008	0.51405
2098.52250	0.51407
2094.66492	0.51413
2090.80734	0.51426
2086.94977	0.51411
2083.09219	0.51389
2079.23461	0.51391
2075.37703	0.51381
2071.51945	0.51374
2067.66187	0.51400
2063.80430	0.51408
2059.94672	0.51392
2056.08914	0.51393
2052.23156	0.51411
2048.37398	0.51411
2044.51641	0.51368
2040.65883	0.51346
2036.80125	0.51393
2032.94367	0.51416
2029.08609	0.51396
2025.22852	0.51391
2021.37094	0.51397
2017.51336	0.51406
2013.65578	0.51401
2009.79820	0.51396
2005.94062	0.51403
2002.08305	0.51388
1998.22547	0.51435
1994.36789	0.51501
1990.51031	0.51422
1986.65273	0.51350
1982.79516	0.51386
1978.93758	0.51405
1975.08000	0.51412
1971.22242	0.51443
1967.36484	0.51445
1963.50727	0.51425
1959.64969	0.51413
1955.79211	0.51412
1951.93453	0.51401
1948.07695	0.51334
1944.21937	0.51338
1940.36180	0.51450
1936.50422	0.51451
1932.64664	0.51374
1928.78906	0.51336
1924.93148	0.51310
1921.07391	0.51261
1917.21633	0.51284
1913.35875	0.51381
1909.50117	0.51416
1905.64359	0.51368
1901.78602	0.51328
1897.92844	0.51291
1894.07086	0.51219
1890.21328	0.51232
1886.35570	0.51363
1882.49812	0.51420
1878.64055	0.51396
1874.78297	0.51387
1870.92539	0.51413
1867.06781	0.51449
1863.21023	0.51437
1859.35266	0.51395
1855.49508	0.51366
1851.63750	0.51292
1847.77992	0.51197
1843.92234	0.51334
1840.06477	0.51436
1836.20719	0.51365
1832.34961	0.51401
1828.49203	0.51330
1824.63445	0.51172
1820.77687	0.51289
1816.91930	0.51376
1813.06172	0.51316
1809.20414	0.51349
1805.34656	0.51355
1801.48898	0.51366
1797.63141	0.51619
1793.77383	0.51670
1789.91625	0.51435
1786.05867	0.51416
1782.20109	0.51430
1778.34352	0.51439
1774.48594	0.51454
1770.62836	0.51465
1766.77078	0.51641
1762.91320	0.51677
1759.05562	0.51527
1755.19805	0.51486
1751.34047	0.51453
1747.48289	0.51315
1743.62531	0.51386
1739.76773	0.51604
1735.91016	0.51424
1732.05258	0.50888
1728.19500	0.50856
1724.33742	0.50949
1720.47984	0.50965
1716.62227	0.51122
1712.76469	0.50986
1708.90711	0.50723
1705.04953	0.50944
1701.19195	0.51295
1697.33437	0.51003
1693.47680	0.50920
1689.61922	0.50981
1685.76164	0.51196
1681.90406	0.51517
1678.04648	0.51584
1674.18891	0.51763
1670.33133	0.51547
1666.47375	0.51025
1662.61617	0.50934
1658.75859	0.51098
1654.90102	0.51199
1651.04344	0.50960
1647.18586	0.50760
1643.32828	0.51033
1639.47070	0.51380
1635.61312	0.51326
1631.75555	0.51091
1627.89797	0.51145
1624.04039	0.51010
1620.18281	0.50942
1616.32523	0.51291
1612.46766	0.51370
1608.61008	0.51203
1604.75250	0.51109
1600.89492	0.51144
1597.03734	0.51204
1593.17977	0.51178
1589.32219	0.51210
1585.46461	0.51259
1581.60703	0.51361
1577.74945	0.51419
1573.89187	0.50885
1570.03430	0.50742
1566.17672	0.51192
1562.31914	0.51328
1558.46156	0.51780
1554.60398	0.51649
1550.74641	0.51046
1546.88883	0.51193
1543.03125	0.51284
1539.17367	0.50582
1535.31609	0.50993
1531.45852	0.51426
1527.60094	0.51308
1523.74336	0.51422
1519.88578	0.52011
1516.02820	0.51793
1512.17062	0.51496
1508.31305	0.51077
1504.45547	0.50420
1500.59789	0.50254
1496.74031	0.50465
1492.88273	0.50926
1489.02516	0.51302
1485.16758	0.51206
1481.31000	0.50679
1477.45242	0.50244
1473.59484	0.50193
1469.73727	0.50080
1465.87969	0.50032
1462.02211	0.50177
1458.16453	0.50081
1454.30695	0.49667
1450.44937	0.49612
1446.59180	0.49745
1442.73422	0.49707
1438.87664	0.49863
1435.01906	0.50396
1431.16148	0.50328
1427.30391	0.49862
1423.44633	0.49896
1419.58875	0.50360
1415.73117	0.50271
1411.87359	0.50132
1408.01602	0.50454
1404.15844	0.50649
1400.30086	0.50310
1396.44328	0.50071
1392.58570	0.50241
1388.72812	0.50106
1384.87055	0.49924
1381.01297	0.50018
1377.15539	0.50140
1373.29781	0.50337
1369.44023	0.50448
1365.58266	0.50488
1361.72508	0.50397
1357.86750	0.50270
1354.00992	0.50322
1350.15234	0.50290
1346.29477	0.50299
1342.43719	0.50346
1338.57961	0.50121
1334.72203	0.50007
1330.86445	0.50064
1327.00687	0.50045
1323.14930	0.49923
1319.29172	0.49783
1315.43414	0.49801
1311.57656	0.49817
1307.71898	0.49725
1303.86141	0.49684
1300.00383	0.49664
1296.14625	0.49650
1292.28867	0.49673
1288.43109	0.49728
1284.57352	0.49799
1280.71594	0.49824
1276.85836	0.49839
1273.00078	0.49888
1269.14320	0.49935
1265.28562	0.49943
1261.42805	0.49951
1257.57047	0.50034
1253.71289	0.50121
1249.85531	0.50151
1245.99773	0.50161
1242.14016	0.50174
1238.28258	0.50190
1234.42500	0.50193
1230.56742	0.50199
1226.70984	0.50201
1222.85227	0.50185
1218.99469	0.50180
1215.13711	0.50150
1211.27953	0.50102
1207.42195	0.50086
1203.56437	0.50022
1199.70680	0.49893
1195.84922	0.49809
1191.99164	0.49744
1188.13406	0.49649
1184.27648	0.49552
1180.41891	0.49468
1176.56133	0.49396
1172.70375	0.49310
1168.84617	0.49194
1164.98859	0.49081
1161.13102	0.48978
1157.27344	0.48860
1153.41586	0.48721
1149.55828	0.48562
1145.70070	0.48368
1141.84312	0.48106
1137.98555	0.47719
1134.12797	0.47121
1130.27039	0.46221
1126.41281	0.45020
1122.55523	0.43678
1118.69766	0.42417
1114.84008	0.41431
1110.98250	0.40850
1107.12492	0.40717
1103.26734	0.41038
1099.40977	0.41798
1095.55219	0.42876
1091.69461	0.44061
1087.83703	0.45197
1083.97945	0.46202
1080.12187	0.47006
1076.26430	0.47614
1072.40672	0.48074
1068.54914	0.48398
1064.69156	0.48602
1060.83398	0.48760
1056.97641	0.48915
1053.11883	0.49024
1049.26125	0.49097
1045.40367	0.49162
1041.54609	0.49191
1037.68852	0.49186
1033.83094	0.49163
1029.97336	0.49131
1026.11578	0.49079
1022.25820	0.48987
1018.40062	0.48881
1014.54305	0.48784
1010.68547	0.48669
1006.82789	0.48537
1002.97031	0.48404
999.11273	0.48286
995.25516	0.48165
991.39758	0.47959
987.54000	0.47698
983.68242	0.47471
979.82484	0.47266
975.96727	0.47088
972.10969	0.46942
968.25211	0.46816
964.39453	0.46745
960.53695	0.46726
956.67937	0.46715
952.82180	0.46715
948.96422	0.46753
945.10664	0.46793
941.24906	0.46782
937.39148	0.46691
933.53391	0.46575
929.67633	0.46482
925.81875	0.46285
921.96117	0.45980
918.10359	0.45738
914.24602	0.45512
910.38844	0.45241
906.53086	0.45013
902.67328	0.44832
898.81570	0.44713
894.95812	0.44660
891.10055	0.44605
887.24297	0.44573
883.38539	0.44581
879.52781	0.44615
875.67023	0.44706
871.81266	0.44828
867.95508	0.44969
864.09750	0.45201
860.23992	0.45512
856.38234	0.45791
852.52477	0.46019
848.66719	0.46207
844.80961	0.46358
840.95203	0.46492
837.09445	0.46510
833.23687	0.46366
829.37930	0.46030
825.52172	0.45571
821.66414	0.45255
817.80656	0.45164
813.94898	0.45255
810.09141	0.45444
806.23383	0.45663
802.37625	0.45881
798.51867	0.45824
794.66109	0.45547
790.80352	0.45398
786.94594	0.45333
783.08836	0.45264
779.23078	0.45195
775.37320	0.45111
771.51562	0.45036
767.65805	0.44930
763.80047	0.44802
759.94289	0.44719
756.08531	0.44600
752.22773	0.44336
748.37016	0.43993
744.51258	0.43613
740.65500	0.43216
736.79742	0.43120
732.93984	0.43477
729.08227	0.44001
725.22469	0.44672
721.36711	0.45407
717.50953	0.45950
713.65195	0.46650
709.79437	0.47464
705.93680	0.47996
702.07922	0.48285
698.22164	0.48185
694.36406	0.47870
690.50648	0.47761
686.64891	0.47582
682.79133	0.47459
678.93375	0.47628
675.07617	0.47362
671.21859	0.46804
667.36102	0.47090
663.50344	0.47381
659.64586	0.47389
655.78828	0.47409
651.93070	0.46812
648.07312	0.46392
644.21555	0.46622
640.35797	0.46584
636.50039	0.46253
632.64281	0.45244
628.78523	0.41972
624.92766	0.36866
621.07008	0.33235
617.21250	0.32083
613.35492	0.31624
609.49734	0.31681
605.63977	0.32925
601.78219	0.35222
597.92461	0.37816
594.06703	0.39907
590.20945	0.41583
586.35187	0.42643
582.49430	0.42921
578.63672	0.43199
574.77914	0.43505
570.92156	0.43237
567.06398	0.42848
563.20641	0.42898
559.34883	0.43210
555.49125	0.43396
551.63367	0.43364
547.77609	0.43703
543.91852	0.44258
540.06094	0.44503
536.20336	0.44558
532.34578	0.44655
528.48820	0.45407
524.63062	0.45863
520.77305	0.44855
516.91547	0.43830
513.05789	0.44040
509.20031	0.44713
505.34273	0.44719
501.48516	0.44668
497.62758	0.45685
493.77000	0.46351
489.91242	0.46431
486.05484	0.47059
482.19727	0.47164
478.33969	0.47128
474.48211	0.48168
470.62453	0.48250
466.76695	0.47737
462.90937	0.48461
459.05180	0.48761
455.19422	0.48676
451.33664	0.49121
447.47906	0.49377
443.62148	0.49881
439.76391	0.49924
435.90633	0.49219
432.04875	0.48639
428.19117	0.47671
424.33359	0.46576
420.47602	0.47298
416.61844	0.48989
412.76086	0.49227
408.90328	0.49248
405.04570	0.48317
401.18812	0.47032
397.33055	0.47462
393.47297	0.48709
389.61539	0.50540
385.75781	0.52661
381.90023	0.51059
378.04266	0.46714
374.18508	0.45607
370.32750	0.50867
366.46992	0.52207
362.61234	0.51392
358.75477	0.54042
354.89719	0.51823
351.03961	0.45076
347.18203	0.43420
343.32445	0.33953
339.46687	0.20745
335.60930	0.52359
331.75172	0.84163
327.89414	0.41056
324.03656	0.25879
320.17898	0.75154
316.32141	0.65107
312.46383	0.35700
308.60625	2.14278
304.74867	2.14278
300.89109	2.14278
