14998.26375	2.14278
14994.40617	2.14278
14990.54859	2.14278
14986.69102	2.14278
14982.83344	2.14278
14978.97586	-1.29178
14975.11828	-0.18404
14971.26070	0.84063
14967.40312	0.84063
14963.54555	1.41124
14959.68797	0.89733
14955.83039	1.17365
14951.97281	1.53021
14948.11523	-0.20054
14944.25766	-0.06065
14940.40008	0.26106
14936.54250	0.28844
14932.68492	0.56003
14928.82734	0.43464
14924.96977	-0.11166
14921.11219	-0.15740
14917.25461	-0.51268
14913.39703	-0.51268
14909.53945	-0.51268
14905.68187	4.21498
14901.82430	1.55657
14897.96672	2.27814
14894.10914	2.27814
14890.25156	0.25050
14886.39398	-0.87521
14882.53641	-0.99879
14878.67883	0.52519
14874.82125	1.24756
14870.96367	1.52790
14867.10609	1.52790
14863.24852	1.52790
14859.39094	1.52790
14855.53336	-2.06337
14851.67578	-0.89955
14847.81820	0.09288
14843.96062	0.27082
14840.10305	0.81729
14836.24547	3.26140
14832.38789	3.26140
14828.53031	3.26140
14824.67273	3.26140
14820.81516	3.26140
14816.95758	2.09291
14813.10000	0.08289
14809.24242	0.08289
14805.38484	0.08289
14801.52727	4.22684
14797.66969	1.88576
14793.81211	1.88576
14789.95453	1.88576
14786.09695	0.63931
14782.23937	0.63931
14778.38180	0.63931
14774.52422	0.63931
14770.66664	0.63931
14766.80906	0.48053
14762.95148	0.14232
14759.09391	0.07858
14755.23633	0.09069
14751.37875	0.87614
14747.52117	1.76757
14743.66359	1.03842
14739.80602	2.25069
14735.94844	1.98893
14732.09086	0.14891
14728.23328	0.14891
14724.37570	0.14891
14720.51812	0.14891
14716.66055	0.14891
14712.80297	0.14891
14708.94539	0.14891
14705.08781	0.14891
14701.23023	0.14891
14697.37266	0.14891
14693.51508	2.69285
14689.65750	2.69285
14685.79992	2.69285
14681.94234	2.69285
14678.08477	2.69285
14674.22719	2.69285
14670.36961	2.69285
14666.51203	2.69285
14662.65445	-0.25661
14658.79687	-0.31564
14654.93930	-0.31564
14651.08172	-0.31564
14647.22414	-0.31564
14643.36656	-0.31564
14639.50898	1.40341
14635.65141	1.13115
14631.79383	1.13115
14627.93625	-0.86165
14624.07867	0.10082
14620.22109	0.59406
14616.36352	0.59406
14612.50594	0.59406
14608.64836	0.15842
14604.79078	-0.62524
14600.93320	-0.41793
14597.07562	0.63897
14593.21805	0.87981
14589.36047	0.93195
14585.50289	2.62578
14581.64531	6.59130
14577.78773	6.59130
14573.93016	6.59130
14570.07258	-0.09268
14566.21500	0.19839
14562.35742	0.11957
14558.49984	-0.04550
14554.64227	0.16920
14550.78469	0.16920
14546.92711	0.16920
14543.06953	-0.79379
14539.21195	-0.83667
14535.35437	-0.83667
14531.49680	-0.83667
14527.63922	-0.83667
14523.78164	1.59373
14519.92406	3.03524
14516.06648	3.03524
14512.20891	3.03524
14508.35133	3.03524
14504.49375	-0.07101
14500.63617	0.10077
14496.77859	0.52582
14492.92102	0.52582
14489.06344	0.52582
14485.20586	0.52582
14481.34828	0.80959
14477.49070	0.40371
14473.63312	0.40371
14469.77555	0.40371
14465.91797	0.60973
14462.06039	0.60973
14458.20281	0.60973
14454.34523	0.60973
14450.48766	0.60973
14446.63008	2.68156
14442.77250	0.90483
14438.91492	0.90483
14435.05734	0.90483
14431.19977	0.47126
14427.34219	0.29374
14423.48461	1.25993
14419.62703	1.25993
14415.76945	1.25993
14411.91187	1.34524
14408.05430	0.59455
14404.19672	0.71876
14400.33914	1.46216
14396.48156	1.36575
14392.62398	1.36575
14388.76641	1.36575
14384.90883	1.74753
14381.05125	0.71912
14377.19367	0.71912
14373.33609	0.71912
14369.47852	0.26611
14365.62094	0.03880
14361.76336	0.02291
14357.90578	-0.20713
14354.04820	-0.37137
14350.19062	-0.25181
14346.33305	0.03059
14342.47547	0.03059
14338.61789	0.03059
14334.76031	0.03059
14330.90273	2.41829
14327.04516	2.41829
14323.18758	2.02125
14319.33000	0.03357
14315.47242	-0.21615
14311.61484	-0.39296
14307.75727	-0.06594
14303.89969	0.04913
14300.04211	0.35589
14296.18453	0.80084
14292.32695	0.52968
14288.46937	0.27670
14284.61180	0.97839
14280.75422	0.91618
14276.89664	0.20009
14273.03906	0.17276
14269.18148	0.17276
14265.32391	0.17276
14261.46633	0.17276
14257.60875	0.17276
14253.75117	0.17276
14249.89359	-0.11130
14246.03602	0.29270
14242.17844	0.14507
14238.32086	1.03181
14234.46328	1.03181
14230.60570	1.03181
14226.74812	1.03181
14222.89055	1.03181
14219.03297	1.03181
14215.17539	1.39769
14211.31781	5.23594
14207.46023	5.23594
14203.60266	5.23594
14199.74508	5.23594
14195.88750	2.18365
14192.02992	1.04106
14188.17234	1.04106
14184.31477	1.50694
14180.45719	1.50694
14176.59961	1.50694
14172.74203	1.50694
14168.88445	0.48125
14165.02687	0.27501
14161.16930	0.31165
14157.31172	0.56394
14153.45414	0.56394
14149.59656	0.56394
14145.73898	0.56394
14141.88141	0.56394
14138.02383	0.42092
14134.16625	0.56866
14130.30867	0.72767
14126.45109	0.86764
14122.59352	0.86764
14118.73594	0.86764
14114.87836	0.86764
14111.02078	1.98075
14107.16320	1.66172
14103.30562	0.44727
14099.44805	0.08371
14095.59047	0.08371
14091.73289	0.08371
14087.87531	0.08371
14084.01773	-0.10011
14080.16016	0.93528
14076.30258	0.32658
14072.44500	-0.01851
14068.58742	1.13635
14064.72984	1.13635
14060.87227	-0.02067
14057.01469	0.37844
14053.15711	0.37844
14049.29953	0.37844
14045.44195	0.37844
14041.58437	0.37844
14037.72680	0.37844
14033.86922	0.37844
14030.01164	0.37844
14026.15406	0.37844
14022.29648	-3.33333
14018.43891	-2.89425
14014.58133	-2.89425
14010.72375	-2.09328
14006.86617	-2.09328
14003.00859	-2.09328
13999.15102	-2.09328
13995.29344	1.25305
13991.43586	-1.50796
13987.57828	-1.50796
13983.72070	2.32240
13979.86312	0.20037
13976.00555	-2.42179
13972.14797	3.77229
13968.29039	1.02854
13964.43281	1.02854
13960.57523	-1.18523
13956.71766	-0.31010
13952.86008	2.02713
13949.00250	2.02713
13945.14492	2.02713
13941.28734	-0.91439
13937.42977	0.32297
13933.57219	2.19230
13929.71461	1.30227
13925.85703	1.30227
13921.99945	1.95617
13918.14187	0.65245
13914.28430	0.65245
13910.42672	0.65245
13906.56914	0.65245
13902.71156	0.65245
13898.85398	0.65245
13894.99641	5.93737
13891.13883	5.93737
13887.28125	5.93737
13883.42367	5.93737
13879.56609	-1.78088
13875.70852	-1.78088
13871.85094	-1.39359
13867.99336	0.11378
13864.13578	1.88362
13860.27820	1.28381
13856.42062	0.27185
13852.56305	0.27185
13848.70547	0.27185
13844.84789	0.27185
13840.99031	0.27185
13837.13273	1.08760
13833.27516	4.09308
13829.41758	4.09308
13825.56000	4.09308
13821.70242	1.52850
13817.84484	0.88401
13813.98727	0.36920
13810.12969	0.71547
13806.27211	0.75178
13802.41453	0.21178
13798.55695	-0.53825
13794.69937	-0.53825
13790.84180	-1.81902
13786.98422	-0.45476
13783.12664	-0.55807
13779.26906	-0.55807
13775.41148	-0.55807
13771.55391	-0.67474
13767.69633	-0.24333
13763.83875	-0.24333
13759.98117	-0.24333
13756.12359	-0.13132
13752.26602	0.25742
13748.40844	2.03874
13744.55086	2.03874
13740.69328	2.03874
13736.83570	0.08100
13732.97812	-0.31390
13729.12055	-0.31390
13725.26297	-0.31390
13721.40539	-0.08488
13717.54781	-0.02465
13713.69023	0.05302
13709.83266	0.03025
13705.97508	0.79722
13702.11750	1.13453
13698.25992	2.15250
13694.40234	2.15250
13690.54477	2.15250
13686.68719	1.10524
13682.82961	-0.31069
13678.97203	-0.20862
13675.11445	-0.20862
13671.25687	-0.20862
13667.39930	0.93001
13663.54172	2.94539
13659.68414	1.83967
13655.82656	0.74013
13651.96898	1.02549
13648.11141	1.51830
13644.25383	1.24440
13640.39625	0.55381
13636.53867	0.37002
13632.68109	0.37002
13628.82352	0.37002
13624.96594	0.37002
13621.10836	1.11578
13617.25078	-1.30025
13613.39320	-1.25590
13609.53562	-1.08849
13605.67805	-1.08849
13601.82047	-1.08849
13597.96289	0.69151
13594.10531	0.39813
13590.24773	0.04393
13586.39016	-1.50254
13582.53258	-1.50254
13578.67500	-1.50254
13574.81742	0.09301
13570.95984	0.69789
13567.10227	1.49108
13563.24469	0.75020
13559.38711	0.27368
13555.52953	1.35558
13551.67195	0.72502
13547.81437	0.21896
13543.95680	0.59854
13540.09922	0.43153
13536.24164	0.82806
13532.38406	0.91511
13528.52648	0.35818
13524.66891	0.27451
13520.81133	0.09237
13516.95375	-0.03328
13513.09617	0.58614
13509.23859	0.58614
13505.38102	0.58614
13501.52344	1.83086
13497.66586	0.37838
13493.80828	-0.02922
13489.95070	-0.01329
13486.09312	0.89201
13482.23555	0.89201
13478.37797	3.49040
13474.52039	3.49040
13470.66281	3.49040
13466.80523	2.56910
13462.94766	1.47577
13459.09008	0.33495
13455.23250	0.34746
13451.37492	0.43720
13447.51734	0.43720
13443.65977	-1.13689
13439.80219	-0.57456
13435.94461	-0.35679
13432.08703	0.29914
13428.22945	1.09708
13424.37187	0.52629
13420.51430	1.03899
13416.65672	1.12116
13412.79914	1.60258
13408.94156	1.60258
13405.08398	1.60258
13401.22641	1.60258
13397.36883	0.81343
13393.51125	0.85491
13389.65367	1.20770
13385.79609	2.13522
13381.93852	2.13522
13378.08094	2.13522
13374.22336	2.13522
13370.36578	2.13522
13366.50820	-0.02532
13362.65062	0.12542
13358.79305	0.12542
13354.93547	0.12542
13351.07789	-0.07243
13347.22031	-0.51184
13343.36273	0.00891
13339.50516	0.00705
13335.64758	-0.03184
13331.79000	0.12021
13327.93242	-0.06410
13324.07484	0.39590
13320.21727	0.30285
13316.35969	0.02862
13312.50211	1.11370
13308.64453	1.11370
13304.78695	1.24092
13300.92937	0.73676
13297.07180	0.73676
13293.21422	0.73676
13289.35664	0.73676
13285.49906	1.07912
13281.64148	0.47406
13277.78391	0.47406
13273.92633	0.61936
13270.06875	0.61936
13266.21117	0.61936
13262.35359	0.61936
13258.49602	-0.11025
13254.63844	0.06868
13250.78086	0.71927
13246.92328	0.71927
13243.06570	0.71927
13239.20812	-1.26437
13235.35055	-0.04424
13231.49297	0.77828
13227.63539	0.48501
13223.77781	0.63158
13219.92023	2.34705
13216.06266	0.60454
13212.20508	0.60454
13208.34750	0.60454
13204.48992	-0.18464
13200.63234	-0.18464
13196.77477	3.32193
13192.91719	0.87270
13189.05961	1.26842
13185.20203	1.26842
13181.34445	1.26842
13177.48687	1.26842
13173.62930	1.26842
13169.77172	1.13512
13165.91414	0.19726
13162.05656	0.19726
13158.19898	0.19726
13154.34141	1.12514
13150.48383	1.05695
13146.62625	0.81252
13142.76867	1.79548
13138.91109	1.79548
13135.05352	1.79548
13131.19594	1.79548
13127.33836	1.79548
13123.48078	1.79548
13119.62320	1.79548
13115.76562	1.79548
13111.90805	1.79548
13108.05047	3.61701
13104.19289	0.99028
13100.33531	0.58263
13096.47773	1.02045
13092.62016	1.72103
13088.76258	0.63780
13084.90500	0.63780
13081.04742	0.63780
13077.18984	-1.01478
13073.33227	0.57418
13069.47469	3.97029
13065.61711	3.97029
13061.75953	3.97029
13057.90195	3.97029
13054.04437	-0.29232
13050.18680	-0.73599
13046.32922	-0.75054
13042.47164	2.72027
13038.61406	1.22887
13034.75648	1.02986
13030.89891	1.02986
13027.04133	1.02986
13023.18375	0.70027
13019.32617	0.48617
13015.46859	0.48617
13011.61102	0.48617
13007.75344	0.48617
13003.89586	0.48617
13000.03828	0.48617
12996.18070	-0.30309
12992.32312	-0.27328
12988.46555	0.01982
12984.60797	0.98425
12980.75039	5.57593
12976.89281	5.57593
12973.03523	5.57593
12969.17766	-0.87152
12965.32008	0.12222
12961.46250	-0.01279
12957.60492	0.19717
12953.74734	0.19717
12949.88977	0.19717
12946.03219	0.19717
12942.17461	0.19717
12938.31703	0.00738
12934.45945	0.58737
12930.60187	0.58737
12926.74430	0.58737
12922.88672	0.58737
12919.02914	0.58737
12915.17156	0.20853
12911.31398	0.50552
12907.45641	1.62357
12903.59883	1.62357
12899.74125	1.62357
12895.88367	-0.07414
12892.02609	1.14107
12888.16852	1.14107
12884.31094	1.14107
12880.45336	5.25668
12876.59578	5.70305
12872.73820	5.70305
12868.88062	5.70305
12865.02305	0.46841
12861.16547	1.72398
12857.30789	1.36057
12853.45031	0.85926
12849.59273	0.76963
12845.73516	0.76963
12841.87758	0.76963
12838.02000	1.83791
12834.16242	0.11109
12830.30484	-0.28970
12826.44727	-0.21844
12822.58969	0.26764
12818.73211	1.79546
12814.87453	1.79546
12811.01695	1.79546
12807.15937	1.45520
12803.30180	1.45520
12799.44422	1.45520
12795.58664	1.45520
12791.72906	0.58598
12787.87148	0.11679
12784.01391	0.11679
12780.15633	0.11679
12776.29875	0.92900
12772.44117	2.47690
12768.58359	2.47690
12764.72602	0.76317
12760.86844	0.13460
12757.01086	0.13270
12753.15328	0.08334
12749.29570	0.53085
12745.43812	0.53827
12741.58055	1.11824
12737.72297	1.11824
12733.86539	1.11824
12730.00781	1.11824
12726.15023	1.11824
12722.29266	1.11824
12718.43508	1.11824
12714.57750	0.79861
12710.71992	0.61951
12706.86234	0.79032
12703.00477	0.69528
12699.14719	0.69528
12695.28961	0.69528
12691.43203	0.36841
12687.57445	1.77490
12683.71687	1.77490
12679.85930	0.53808
12676.00172	0.05520
12672.14414	0.05520
12668.28656	0.03331
12664.42898	-0.22965
12660.57141	-0.22965
12656.71383	-0.22965
12652.85625	-0.22965
12648.99867	-0.22965
12645.14109	1.52690
12641.28352	1.52690
12637.42594	1.52690
12633.56836	0.13470
12629.71078	0.13470
12625.85320	0.13470
12621.99562	0.58277
12618.13805	0.99400
12614.28047	0.99400
12610.42289	0.99400
12606.56531	0.99400
12602.70773	0.99400
12598.85016	1.38022
12594.99258	1.01646
12591.13500	0.80413
12587.27742	1.03680
12583.41984	0.83457
12579.56227	0.81398
12575.70469	0.81398
12571.84711	0.81398
12567.98953	0.81398
12564.13195	0.81398
12560.27437	0.81398
12556.41680	1.03092
12552.55922	0.75701
12548.70164	1.05209
12544.84406	1.04396
12540.98648	0.69445
12537.12891	1.73348
12533.27133	1.73348
12529.41375	1.73348
12525.55617	1.73348
12521.69859	-0.73095
12517.84102	0.22455
12513.98344	0.41699
12510.12586	0.89181
12506.26828	0.56354
12502.41070	0.18820
12498.55312	0.38440
12494.69555	0.57806
12490.83797	0.57806
12486.98039	0.57806
12483.12281	0.57806
12479.26523	0.57806
12475.40766	-0.75583
12471.55008	0.21798
12467.69250	-0.02258
12463.83492	-0.02218
12459.97734	-0.02218
12456.11977	-0.02218
12452.26219	-0.02218
12448.40461	-0.02218
12444.54703	-0.02218
12440.68945	-0.02218
12436.83187	-0.66786
12432.97430	-0.66786
12429.11672	-0.29530
12425.25914	0.36512
12421.40156	1.71781
12417.54398	1.77841
12413.68641	-0.06818
12409.82883	-0.06818
12405.97125	-0.06818
12402.11367	-0.06818
12398.25609	0.59246
12394.39852	0.31859
12390.54094	0.50104
12386.68336	0.50104
12382.82578	3.67652
12378.96820	3.67652
12375.11062	3.67652
12371.25305	-0.25064
12367.39547	0.33913
12363.53789	0.52062
12359.68031	0.98564
12355.82273	0.98564
12351.96516	0.98564
12348.10758	0.98564
12344.25000	0.19581
12340.39242	-0.75510
12336.53484	0.50737
12332.67727	0.05128
12328.81969	-0.85999
12324.96211	-1.39312
12321.10453	-1.39312
12317.24695	-1.39312
12313.38937	-1.39312
12309.53180	1.92057
12305.67422	1.92057
12301.81664	1.92057
12297.95906	1.92057
12294.10148	1.92057
12290.24391	1.92057
12286.38633	1.92057
12282.52875	1.92057
12278.67117	-1.01713
12274.81359	0.13690
12270.95602	1.40837
12267.09844	1.40837
12263.24086	2.39293
12259.38328	2.39293
12255.52570	2.39293
12251.66812	2.39293
12247.81055	-1.27362
12243.95297	0.26023
12240.09539	1.12434
12236.23781	1.20159
12232.38023	1.00388
12228.52266	1.00388
12224.66508	1.00388
12220.80750	1.03525
12216.94992	1.03525
12213.09234	1.03525
12209.23477	1.19302
12205.37719	0.75395
12201.51961	0.43317
12197.66203	-0.33517
12193.80445	-0.45299
12189.94687	0.84043
12186.08930	1.92777
12182.23172	3.73181
12178.37414	1.03841
12174.51656	0.97592
12170.65898	0.97592
12166.80141	0.97592
12162.94383	0.97592
12159.08625	0.61410
12155.22867	0.38833
12151.37109	0.12063
12147.51352	0.78429
12143.65594	1.17820
12139.79836	0.50091
12135.94078	0.50091
12132.08320	0.50091
12128.22562	-1.30181
12124.36805	-1.95749
12120.51047	-1.95749
12116.65289	2.49653
12112.79531	0.04002
12108.93773	0.08343
12105.08016	0.97013
12101.22258	0.97013
12097.36500	0.97013
12093.50742	0.97013
12089.64984	0.97013
12085.79227	0.97013
12081.93469	-1.14838
12078.07711	-0.88887
12074.21953	-1.11188
12070.36195	-1.11188
12066.50437	0.14725
12062.64680	-0.03477
12058.78922	0.10719
12054.93164	1.11619
12051.07406	1.11619
12047.21648	1.11619
12043.35891	0.28932
12039.50133	-0.18361
12035.64375	1.58188
12031.78617	1.58188
12027.92859	1.58188
12024.07102	-0.78740
12020.21344	0.20610
12016.35586	0.21786
12012.49828	0.21786
12008.64070	0.21786
12004.78312	0.72982
12000.92555	-0.45084
11997.06797	-0.39808
11993.21039	0.61363
11989.35281	1.61686
11985.49523	1.61686
11981.63766	1.61686
11977.78008	1.61686
11973.92250	1.61686
11970.06492	1.61686
11966.20734	1.61686
11962.34977	1.61686
11958.49219	0.39055
11954.63461	0.20675
11950.77703	-0.00852
11946.91945	0.18895
11943.06187	2.17339
11939.20430	2.17339
11935.34672	0.40728
11931.48914	0.63199
11927.63156	0.63199
11923.77398	0.30820
11919.91641	0.30820
11916.05883	0.30820
11912.20125	0.30820
11908.34367	2.75608
11904.48609	0.31987
11900.62852	-0.74808
11896.77094	-1.06986
11892.91336	2.20070
11889.05578	1.11399
11885.19820	-1.14738
11881.34062	-1.14738
11877.48305	-1.80166
11873.62547	-0.43846
11869.76789	0.41962
11865.91031	0.12451
11862.05273	0.51498
11858.19516	1.22454
11854.33758	1.22454
11850.48000	1.22454
11846.62242	1.22454
11842.76484	1.22454
11838.90727	1.53728
11835.04969	1.40022
11831.19211	1.40022
11827.33453	1.40022
11823.47695	1.40022
11819.61937	1.40022
11815.76180	1.40022
11811.90422	1.40022
11808.04664	1.40022
11804.18906	1.40022
11800.33148	1.89306
11796.47391	1.89306
11792.61633	1.89306
11788.75875	1.89306
11784.90117	1.89306
11781.04359	1.89306
11777.18602	1.89306
11773.32844	1.89306
11769.47086	0.84890
11765.61328	0.84890
11761.75570	0.84890
11757.89812	1.02315
11754.04055	0.58543
11750.18297	0.58543
11746.32539	0.58543
11742.46781	0.58543
11738.61023	0.58543
11734.75266	0.58543
11730.89508	1.45785
11727.03750	0.19888
11723.17992	-0.29964
11719.32234	-0.46711
11715.46477	-0.37635
11711.60719	-0.01057
11707.74961	-0.01057
11703.89203	-0.01057
11700.03445	-0.01057
11696.17687	1.27917
11692.31930	0.43705
11688.46172	0.03288
11684.60414	-0.38812
11680.74656	-0.38812
11676.88898	-0.38812
11673.03141	-0.38812
11669.17383	-0.38812
11665.31625	0.93332
11661.45867	1.04691
11657.60109	-0.20883
11653.74352	-0.20883
11649.88594	-0.20883
11646.02836	-0.20883
11642.17078	-0.20883
11638.31320	1.04259
11634.45562	1.58519
11630.59805	1.58519
11626.74047	1.58519
11622.88289	1.58338
11619.02531	0.73745
11615.16773	0.20043
11611.31016	-0.12299
11607.45258	-0.12299
11603.59500	-0.12299
11599.73742	-0.12299
11595.87984	1.15846
11592.02227	1.15846
11588.16469	1.34145
11584.30711	-0.22785
11580.44953	-0.04245
11576.59195	0.97273
11572.73437	0.93292
11568.87680	0.92079
11565.01922	0.10658
11561.16164	-0.40127
11557.30406	-0.40127
11553.44648	-0.40127
11549.58891	1.65368
11545.73133	0.69049
11541.87375	0.69049
11538.01617	0.69049
11534.15859	2.99870
11530.30102	0.81195
11526.44344	0.33210
11522.58586	-0.21985
11518.72828	-0.21985
11514.87070	-0.21985
11511.01312	-0.21985
11507.15555	-0.21985
11503.29797	-0.21985
11499.44039	-0.90452
11495.58281	-0.08133
11491.72523	-0.60138
11487.86766	-0.60138
11484.01008	-0.60138
11480.15250	-0.60138
11476.29492	-0.60138
11472.43734	0.89300
11468.57977	-0.25072
11464.72219	-0.86059
11460.86461	-2.00662
11457.00703	-2.00662
11453.14945	-2.00662
11449.29187	0.72804
11445.43430	1.06441
11441.57672	1.06441
11437.71914	1.06441
11433.86156	1.09743
11430.00398	1.09743
11426.14641	1.09743
11422.28883	1.19590
11418.43125	1.19590
11414.57367	1.19590
11410.71609	0.28674
11406.85852	0.52175
11403.00094	0.84766
11399.14336	0.24740
11395.28578	-0.04426
11391.42820	0.31203
11387.57062	0.31203
11383.71305	0.31203
11379.85547	1.56503
11375.99789	1.56503
11372.14031	0.04993
11368.28273	3.02332
11364.42516	3.02332
11360.56758	3.02332
11356.71000	3.02332
11352.85242	-2.33822
11348.99484	-2.33822
11345.13727	-2.33822
11341.27969	-0.10705
11337.42211	0.96510
11333.56453	1.20875
11329.70695	1.60926
11325.84937	1.60926
11321.99180	1.60926
11318.13422	-0.30405
11314.27664	-0.30405
11310.41906	-0.30405
11306.56148	0.89284
11302.70391	0.48458
11298.84633	0.63888
11294.98875	3.05039
11291.13117	3.05039
11287.27359	3.05039
11283.41602	3.05039
11279.55844	3.05039
11275.70086	-0.23543
11271.84328	0.77992
11267.98570	3.79122
11264.12812	3.79122
11260.27055	3.79122
11256.41297	3.79122
11252.55539	-1.13071
11248.69781	-0.10622
11244.84023	-0.10622
11240.98266	-0.10622
11237.12508	-0.10622
11233.26750	-0.70362
11229.40992	-0.70362
11225.55234	-0.70362
11221.69477	2.48876
11217.83719	2.66022
11213.97961	2.66022
11210.12203	2.66022
11206.26445	0.48722
11202.40687	0.19036
11198.54930	0.49826
11194.69172	2.21281
11190.83414	2.21281
11186.97656	2.21281
11183.11898	1.76252
11179.26141	0.17206
11175.40383	-0.11370
11171.54625	-0.11370
11167.68867	-0.11370
11163.83109	-0.11370
11159.97352	-0.11370
11156.11594	0.49488
11152.25836	1.21199
11148.40078	-0.90990
11144.54320	-0.14534
11140.68562	0.75280
11136.82805	0.75280
11132.97047	0.75280
11129.11289	0.75280
11125.25531	0.75280
11121.39773	0.75280
11117.54016	0.75280
11113.68258	0.75280
11109.82500	0.75280
11105.96742	-0.84873
11102.10984	-0.84873
11098.25227	-0.84873
11094.39469	1.41603
11090.53711	1.41603
11086.67953	1.41603
11082.82195	-1.36860
11078.96437	-1.74903
11075.10680	-1.74903
11071.24922	0.74160
11067.39164	0.53296
11063.53406	0.24243
11059.67648	-0.10710
11055.81891	-0.63088
11051.96133	1.08449
11048.10375	1.46705
11044.24617	0.69617
11040.38859	0.91165
11036.53102	1.24246
11032.67344	0.52489
11028.81586	0.52489
11024.95828	0.52489
11021.10070	-0.52240
11017.24312	-0.45691
11013.38555	-0.45691
11009.52797	-0.45691
11005.67039	0.03203
11001.81281	0.20253
10997.95523	1.10740
10994.09766	0.45469
10990.24008	-0.12723
10986.38250	0.26384
10982.52492	1.30087
10978.66734	1.55918
10974.80977	-0.29348
10970.95219	-0.29348
10967.09461	-0.29348
10963.23703	-1.05059
10959.37945	-1.05059
10955.52187	-1.05059
10951.66430	0.05846
10947.80672	-2.14205
10943.94914	-2.14205
10940.09156	-2.14205
10936.23398	-2.14205
10932.37641	2.26162
10928.51883	1.29232
10924.66125	0.83944
10920.80367	1.08827
10916.94609	1.08827
10913.08852	2.88403
10909.23094	-0.25788
10905.37336	0.35723
10901.51578	0.35723
10897.65820	0.35723
10893.80062	0.35723
10889.94305	0.35723
10886.08547	-0.61150
10882.22789	1.55694
10878.37031	6.03387
10874.51273	6.03387
10870.65516	-1.95164
10866.79758	-0.53509
10862.94000	-0.53509
10859.08242	-0.53509
10855.22484	1.65868
10851.36727	2.33403
10847.50969	0.68803
10843.65211	0.69493
10839.79453	0.69493
10835.93695	0.69493
10832.07937	0.69493
10828.22180	0.69493
10824.36422	2.85101
10820.50664	2.85101
10816.64906	2.85101
10812.79148	2.85101
10808.93391	2.85101
10805.07633	2.85101
10801.21875	2.85101
10797.36117	2.85101
10793.50359	2.85101
10789.64602	0.51254
10785.78844	0.59540
10781.93086	1.12827
10778.07328	0.37611
10774.21570	0.37611
10770.35812	0.37611
10766.50055	0.37611
10762.64297	0.37611
10758.78539	0.89379
10754.92781	1.25042
10751.07023	1.25042
10747.21266	0.45069
10743.35508	0.32232
10739.49750	0.03943
10735.63992	0.21329
10731.78234	0.21329
10727.92477	0.21329
10724.06719	3.85336
10720.20961	1.84055
10716.35203	1.84055
10712.49445	1.84055
10708.63687	-0.22659
10704.77930	0.09811
10700.92172	0.09811
10697.06414	0.09811
10693.20656	1.45070
10689.34898	0.11083
10685.49141	-0.16441
10681.63383	-0.52656
10677.77625	-0.52656
10673.91867	-0.52656
10670.06109	0.94045
10666.20352	0.94045
10662.34594	0.94045
10658.48836	0.33759
10654.63078	0.33759
10650.77320	0.33759
10646.91562	-0.32857
10643.05805	-0.34953
10639.20047	1.09772
10635.34289	4.62709
10631.48531	4.62709
10627.62773	4.62709
10623.77016	0.41523
10619.91258	0.57688
10616.05500	1.69981
10612.19742	1.69981
10608.33984	1.69981
10604.48227	1.69981
10600.62469	-0.47626
10596.76711	0.44154
10592.90953	0.86104
10589.05195	0.28420
10585.19437	0.88722
10581.33680	0.88722
10577.47922	1.52168
10573.62164	0.20404
10569.76406	0.20855
10565.90648	0.45409
10562.04891	0.45409
10558.19133	0.45409
10554.33375	0.45409
10550.47617	-1.50699
10546.61859	-1.36500
10542.76102	-0.87891
10538.90344	-0.87891
10535.04586	-0.87891
10531.18828	-0.87891
10527.33070	1.09227
10523.47312	0.00333
10519.61555	-0.08618
10515.75797	-0.08618
10511.90039	0.19067
10508.04281	0.90869
10504.18523	0.90869
10500.32766	0.90869
10496.47008	-0.82531
10492.61250	0.03403
10488.75492	0.20428
10484.89734	0.20428
10481.03977	0.20428
10477.18219	0.20428
10473.32461	0.06106
10469.46703	0.36072
10465.60945	0.72125
10461.75187	1.67020
10457.89430	3.94124
10454.03672	3.94124
10450.17914	3.94124
10446.32156	0.30096
10442.46398	-0.07564
10438.60641	0.96752
10434.74883	0.96752
10430.89125	0.96752
10427.03367	0.46121
10423.17609	-0.82128
10419.31852	-0.82128
10415.46094	-0.82128
10411.60336	-0.82128
10407.74578	-0.82128
10403.88820	-0.82128
10400.03062	0.52496
10396.17305	0.38586
10392.31547	-1.49413
10388.45789	-1.49413
10384.60031	-1.49413
10380.74273	-1.49413
10376.88516	-1.49413
10373.02758	-1.49413
10369.17000	-1.49413
10365.31242	-1.49413
10361.45484	-1.49413
10357.59727	-1.49413
10353.73969	-1.49413
10349.88211	-1.49413
10346.02453	-1.49413
10342.16695	-1.49413
10338.30937	0.08866
10334.45180	0.40156
10330.59422	0.98466
10326.73664	0.98466
10322.87906	0.98466
10319.02148	0.98466
10315.16391	0.98466
10311.30633	-1.81753
10307.44875	-1.81753
10303.59117	-1.81753
10299.73359	-1.81753
10295.87602	0.87574
10292.01844	1.58330
10288.16086	0.62604
10284.30328	0.84441
10280.44570	2.24854
10276.58812	2.92328
10272.73055	2.92328
10268.87297	2.92328
10265.01539	2.92328
10261.15781	2.92328
10257.30023	2.92328
10253.44266	2.92328
10249.58508	2.92328
10245.72750	0.94092
10241.86992	0.10852
10238.01234	-0.56775
10234.15477	-1.88971
10230.29719	-1.12590
10226.43961	0.36085
10222.58203	1.01878
10218.72445	1.43040
10214.86687	2.08795
10211.00930	5.88459
10207.15172	5.88459
10203.29414	1.08386
10199.43656	1.09036
10195.57898	0.75362
10191.72141	0.12238
10187.86383	0.08881
10184.00625	0.32752
10180.14867	1.46719
10176.29109	1.87856
10172.43352	0.53427
10168.57594	0.90812
10164.71836	1.40982
10160.86078	1.54618
10157.00320	0.87149
10153.14562	0.03905
10149.28805	-0.11481
10145.43047	0.11873
10141.57289	-0.15315
10137.71531	-0.15315
10133.85773	-0.15315
10130.00016	2.57972
10126.14258	2.57972
10122.28500	2.57972
10118.42742	2.57972
10114.56984	2.57972
10110.71227	0.34243
10106.85469	-0.27326
10102.99711	0.60581
10099.13953	3.18087
10095.28195	3.18087
10091.42437	3.18087
10087.56680	2.20871
10083.70922	2.20871
10079.85164	2.20871
10075.99406	0.75144
10072.13648	0.34271
10068.27891	0.00239
10064.42133	0.43819
10060.56375	3.58224
10056.70617	2.26562
10052.84859	-0.01313
10048.99102	-0.56404
10045.13344	-0.44360
10041.27586	0.45744
10037.41828	1.66707
10033.56070	1.66707
10029.70312	1.66707
10025.84555	-1.70729
10021.98797	1.57147
10018.13039	3.44524
10014.27281	2.46635
10010.41523	-0.03686
10006.55766	-0.09205
10002.70008	0.75260
9998.84250	1.91580
9994.98492	0.07308
9991.12734	-0.58139
9987.26977	-0.11587
9983.41219	-0.11587
9979.55461	1.16731
9975.69703	1.85543
9971.83945	1.85543
9967.98187	1.85543
9964.12430	1.85543
9960.26672	1.24250
9956.40914	1.31044
9952.55156	0.30528
9948.69398	-0.63219
9944.83641	-1.48532
9940.97883	0.65228
9937.12125	1.55085
9933.26367	1.55085
9929.40609	1.55085
9925.54852	1.55085
9921.69094	0.39925
9917.83336	0.99315
9913.97578	0.52724
9910.11820	-0.10214
9906.26062	-0.10214
9902.40305	-0.10214
9898.54547	0.42160
9894.68789	0.67511
9890.83031	1.59736
9886.97273	1.59736
9883.11516	1.59736
9879.25758	1.59736
9875.40000	1.99206
9871.54242	1.11985
9867.68484	1.11985
9863.82727	1.11985
9859.96969	-0.83019
9856.11211	-0.06310
9852.25453	-0.84291
9848.39695	-0.84291
9844.53937	-0.84291
9840.68180	-0.84291
9836.82422	-0.96133
9832.96664	-1.16196
9829.10906	-1.47239
9825.25148	1.22982
9821.39391	-0.40283
9817.53633	-0.39175
9813.67875	1.39450
9809.82117	0.69061
9805.96359	0.69061
9802.10602	2.65772
9798.24844	1.39987
9794.39086	3.85086
9790.53328	3.85086
9786.67570	0.87342
9782.81812	0.85181
9778.96055	1.98874
9775.10297	1.98874
9771.24539	1.98874
9767.38781	1.98874
9763.53023	1.98874
9759.67266	1.98874
9755.81508	1.98874
9751.95750	1.98874
9748.09992	0.97383
9744.24234	0.97383
9740.38477	1.44766
9736.52719	0.89111
9732.66961	0.89111
9728.81203	0.89111
9724.95445	0.89111
9721.09687	0.89111
9717.23930	0.89111
9713.38172	0.89111
9709.52414	0.38116
9705.66656	0.09952
9701.80898	-0.27206
9697.95141	-1.64074
9694.09383	-0.47398
9690.23625	-0.24256
9686.37867	0.32218
9682.52109	0.45031
9678.66352	0.14927
9674.80594	0.58747
9670.94836	0.70123
9667.09078	0.70123
9663.23320	0.70123
9659.37562	-1.87545
9655.51805	-0.04479
9651.66047	0.22503
9647.80289	-0.10466
9643.94531	0.16496
9640.08773	1.43928
9636.23016	1.14289
9632.37258	0.73955
9628.51500	0.73955
9624.65742	0.73955
9620.79984	-0.59365
9616.94227	-0.77767
9613.08469	-0.32269
9609.22711	-0.32269
9605.36953	-0.32269
9601.51195	-0.32269
9597.65437	-0.32269
9593.79680	1.39634
9589.93922	1.11849
9586.08164	0.57943
9582.22406	0.60766
9578.36648	0.20998
9574.50891	-0.00337
9570.65133	-0.49389
9566.79375	-0.49389
9562.93617	-0.49389
9559.07859	-0.49389
9555.22102	-0.49389
9551.36344	-0.49389
9547.50586	-0.49389
9543.64828	-0.49389
9539.79070	0.26290
9535.93312	0.63096
9532.07555	0.16586
9528.21797	-0.07965
9524.36039	-0.07965
9520.50281	-0.07965
9516.64523	-0.07965
9512.78766	0.94851
9508.93008	0.05726
9505.07250	-0.09148
9501.21492	0.34336
9497.35734	0.78953
9493.49977	1.46963
9489.64219	1.46963
9485.78461	1.46963
9481.92703	1.46963
9478.06945	1.46963
9474.21187	1.86756
9470.35430	0.70749
9466.49672	0.13708
9462.63914	-0.18093
9458.78156	-0.18093
9454.92398	-0.18093
9451.06641	0.40041
9447.20883	0.30041
9443.35125	0.30041
9439.49367	0.30041
9435.63609	0.30041
9431.77852	0.30041
9427.92094	0.30041
9424.06336	1.96553
9420.20578	0.36499
9416.34820	-0.05048
9412.49062	-0.16772
9408.63305	-0.17979
9404.77547	0.08214
9400.91789	0.58174
9397.06031	1.24734
9393.20273	1.24734
9389.34516	-0.46313
9385.48758	0.81488
9381.63000	0.56236
9377.77242	0.40521
9373.91484	-0.79896
9370.05727	-0.34921
9366.19969	-0.34921
9362.34211	-0.34921
9358.48453	2.28206
9354.62695	0.56117
9350.76937	-0.77661
9346.91180	-0.96832
9343.05422	-0.87890
9339.19664	-0.96923
9335.33906	-1.22193
9331.48148	-1.22986
9327.62391	0.04744
9323.76633	0.87286
9319.90875	0.76665
9316.05117	0.82559
9312.19359	0.50396
9308.33602	0.00412
9304.47844	0.26189
9300.62086	1.64578
9296.76328	1.64578
9292.90570	0.50383
9289.04812	-1.04223
9285.19055	-1.04790
9281.33297	-0.61202
9277.47539	3.56878
9273.61781	1.62377
9269.76023	0.18944
9265.90266	-0.44632
9262.04508	0.49356
9258.18750	0.12906
9254.32992	-0.07090
9250.47234	-0.38593
9246.61477	-2.24526
9242.75719	-2.24526
9238.89961	0.01202
9235.04203	-0.52331
9231.18445	-0.52331
9227.32687	-0.52331
9223.46930	-0.52331
9219.61172	0.54572
9215.75414	0.78712
9211.89656	0.50704
9208.03898	-0.36697
9204.18141	-0.23608
9200.32383	0.37202
9196.46625	0.63689
9192.60867	0.19080
9188.75109	-0.04669
9184.89352	-0.31731
9181.03594	-0.06099
9177.17836	0.23781
9173.32078	0.68831
9169.46320	0.48735
9165.60562	-0.11797
9161.74805	1.39673
9157.89047	1.40361
9154.03289	1.13112
9150.17531	0.16986
9146.31773	-0.56121
9142.46016	0.11486
9138.60258	0.31088
9134.74500	0.31088
9130.88742	1.35008
9127.02984	-0.00463
9123.17227	-0.39813
9119.31469	-0.09407
9115.45711	-0.09407
9111.59953	-0.09407
9107.74195	1.50648
9103.88437	0.38070
9100.02680	0.11478
9096.16922	0.14140
9092.31164	0.85862
9088.45406	0.85862
9084.59648	1.29281
9080.73891	0.88883
9076.88133	0.34714
9073.02375	-0.99592
9069.16617	-0.38641
9065.30859	0.71395
9061.45102	0.71395
9057.59344	0.42638
9053.73586	0.12261
9049.87828	0.41945
9046.02070	0.41945
9042.16312	0.41945
9038.30555	0.41945
9034.44797	0.41945
9030.59039	-2.58583
9026.73281	-0.37797
9022.87523	-0.67347
9019.01766	-0.21670
9015.16008	0.56498
9011.30250	0.58914
9007.44492	-0.28961
9003.58734	-1.83018
8999.72977	-1.67835
8995.87219	0.32320
8992.01461	0.37520
8988.15703	-0.00458
8984.29945	0.07572
8980.44187	0.55048
8976.58430	1.18295
8972.72672	0.85890
8968.86914	-0.95451
8965.01156	-0.13781
8961.15398	0.58068
8957.29641	0.44497
8953.43883	-0.69055
8949.58125	-0.69055
8945.72367	4.65488
8941.86609	2.51008
8938.00852	-0.52555
8934.15094	-0.01899
8930.29336	0.89607
8926.43578	0.22806
8922.57820	-0.68419
8918.72062	0.04477
8914.86305	0.04477
8911.00547	1.36360
8907.14789	0.29575
8903.29031	-0.40805
8899.43273	-0.35593
8895.57516	0.32403
8891.71758	0.62904
8887.86000	0.25206
8884.00242	-0.49029
8880.14484	-0.65022
8876.28727	0.67086
8872.42969	0.54941
8868.57211	0.54941
8864.71453	0.54941
8860.85695	-0.80613
8856.99937	-0.03604
8853.14180	0.49257
8849.28422	1.33285
8845.42664	1.49711
8841.56906	1.38281
8837.71148	1.38281
8833.85391	1.38281
8829.99633	1.38281
8826.13875	0.20899
8822.28117	0.20602
8818.42359	-0.01097
8814.56602	-0.95449
8810.70844	-0.56594
8806.85086	-0.97857
8802.99328	0.08831
8799.13570	0.23271
8795.27812	0.23742
8791.42055	0.42905
8787.56297	0.62848
8783.70539	0.57631
8779.84781	0.10770
8775.99023	0.08878
8772.13266	0.18944
8768.27508	0.17706
8764.41750	0.13397
8760.55992	0.12215
8756.70234	0.35526
8752.84477	1.57876
8748.98719	0.11265
8745.12961	0.51680
8741.27203	3.02384
8737.41445	1.49965
8733.55687	0.54313
8729.69930	-0.22373
8725.84172	-0.58186
8721.98414	0.71636
8718.12656	0.79621
8714.26898	0.70098
8710.41141	4.15103
8706.55383	4.15103
8702.69625	0.61308
8698.83867	0.46409
8694.98109	0.56180
8691.12352	0.80572
8687.26594	1.05378
8683.40836	0.69504
8679.55078	0.10964
8675.69320	-0.32414
8671.83562	-0.47734
8667.97805	0.00413
8664.12047	0.72531
8660.26289	0.75438
8656.40531	0.31883
8652.54773	0.09210
8648.69016	0.18067
8644.83258	0.05116
8640.97500	0.05505
8637.11742	0.73226
8633.25984	2.44765
8629.40227	0.38521
8625.54469	0.38521
8621.68711	0.38521
8617.82953	-0.21709
8613.97195	-0.04617
8610.11437	0.27021
8606.25680	0.46832
8602.39922	0.61366
8598.54164	-0.03565
8594.68406	-0.53956
8590.82648	-0.08695
8586.96891	0.35691
8583.11133	0.15070
8579.25375	0.19061
8575.39617	0.50666
8571.53859	0.26042
8567.68102	0.25313
8563.82344	0.29554
8559.96586	0.31903
8556.10828	0.63935
8552.25070	-0.05637
8548.39312	-0.22818
8544.53555	0.22273
8540.67797	0.45553
8536.82039	0.43733
8532.96281	-0.07308
8529.10523	-0.12909
8525.24766	-0.18205
8521.39008	0.23000
8517.53250	3.31784
8513.67492	0.99036
8509.81734	0.99036
8505.95977	0.99036
8502.10219	0.99036
8498.24461	0.99036
8494.38703	0.99036
8490.52945	2.14238
8486.67187	0.70545
8482.81430	0.13039
8478.95672	0.26515
8475.09914	0.26515
8471.24156	0.74954
8467.38398	0.21410
8463.52641	0.21635
8459.66883	-0.16648
8455.81125	0.22508
8451.95367	1.83634
8448.09609	1.83634
8444.23852	1.83634
8440.38094	1.28078
8436.52336	0.48959
8432.66578	0.36070
8428.80820	-0.11361
8424.95062	-0.64085
8421.09305	-0.64085
8417.23547	2.73597
8413.37789	1.11162
8409.52031	1.10536
8405.66273	1.09533
8401.80516	0.47235
8397.94758	0.00240
8394.09000	-0.75400
8390.23242	-0.75400
8386.37484	-0.75400
8382.51727	0.12216
8378.65969	-0.07989
8374.80211	-0.10974
8370.94453	0.14906
8367.08695	-0.20599
8363.22937	-0.68990
8359.37180	-0.08046
8355.51422	0.70179
8351.65664	1.96692
8347.79906	1.96692
8343.94148	1.96692
8340.08391	0.51952
8336.22633	0.01932
8332.36875	0.11385
8328.51117	-0.12101
8324.65359	-1.04481
8320.79602	-1.04481
8316.93844	-1.04481
8313.08086	-1.04481
8309.22328	-1.04481
8305.36570	-1.04481
8301.50812	-1.04481
8297.65055	-1.04481
8293.79297	-1.04481
8289.93539	-1.04481
8286.07781	-1.04481
8282.22023	-1.04481
8278.36266	-1.04481
8274.50508	-0.19737
8270.64750	0.31246
8266.78992	0.78549
8262.93234	-0.28835
8259.07477	-0.96190
8255.21719	-0.13824
8251.35961	-0.03641
8247.50203	0.26868
8243.64445	0.66269
8239.78687	0.45403
8235.92930	0.08577
8232.07172	0.02230
8228.21414	0.02230
8224.35656	0.01829
8220.49898	-0.17609
8216.64141	-0.27420
8212.78383	-0.12318
8208.92625	-0.18277
8205.06867	-0.29763
8201.21109	-0.28003
8197.35352	-0.29553
8193.49594	-0.28826
8189.63836	-0.28826
8185.78078	0.85784
8181.92320	0.34259
8178.06562	0.41037
8174.20805	-0.03308
8170.35047	-2.63877
8166.49289	-2.63877
8162.63531	-2.63877
8158.77773	3.30673
8154.92016	-0.39818
8151.06258	-0.33267
8147.20500	0.58119
8143.34742	0.88138
8139.48984	0.43434
8135.63227	0.16161
8131.77469	-0.82347
8127.91711	-0.82347
8124.05953	1.05131
8120.20195	1.56684
8116.34437	1.56684
8112.48680	1.56684
8108.62922	0.53608
8104.77164	0.56352
8100.91406	0.75613
8097.05648	0.15982
8093.19891	0.17254
8089.34133	0.97793
8085.48375	1.76799
8081.62617	1.48638
8077.76859	1.90583
8073.91102	2.96533
8070.05344	2.96533
8066.19586	2.96533
8062.33828	0.88604
8058.48070	0.92169
8054.62312	2.13197
8050.76555	1.62113
8046.90797	0.19966
8043.05039	0.01957
8039.19281	0.50082
8035.33523	0.35125
8031.47766	-0.00482
8027.62008	1.46098
8023.76250	1.98414
8019.90492	0.15192
8016.04734	-1.79366
8012.18977	0.54564
8008.33219	1.05447
8004.47461	0.95140
8000.61703	1.08408
7996.75945	1.05205
7992.90187	0.86626
7989.04430	0.12863
7985.18672	-0.29515
7981.32914	0.20298
7977.47156	0.43276
7973.61398	0.85321
7969.75641	1.67000
7965.89883	0.29700
7962.04125	-0.41639
7958.18367	0.50219
7954.32609	0.60069
7950.46852	0.24166
7946.61094	-0.21816
7942.75336	-0.44486
7938.89578	-0.58116
7935.03820	0.19898
7931.18062	0.52345
7927.32305	1.16714
7923.46547	0.43994
7919.60789	0.00339
7915.75031	0.08579
7911.89273	0.14331
7908.03516	-0.17301
7904.17758	0.05080
7900.32000	1.97056
7896.46242	1.97056
7892.60484	0.90366
7888.74727	0.43081
7884.88969	0.43081
7881.03211	0.99731
7877.17453	0.05768
7873.31695	-0.31615
7869.45937	0.56331
7865.60180	1.12639
7861.74422	0.32902
7857.88664	0.33231
7854.02906	0.44455
7850.17148	0.64379
7846.31391	0.53249
7842.45633	0.20661
7838.59875	0.13878
7834.74117	0.16346
7830.88359	0.22412
7827.02602	0.78267
7823.16844	1.56434
7819.31086	0.49995
7815.45328	-0.00203
7811.59570	-0.05164
7807.73812	0.03705
7803.88055	0.20239
7800.02297	0.37125
7796.16539	0.46340
7792.30781	0.35182
7788.45023	0.18916
7784.59266	0.22851
7780.73508	0.22628
7776.87750	-0.07393
7773.01992	-0.37310
7769.16234	-0.21444
7765.30477	-0.02618
7761.44719	0.07157
7757.58961	0.12794
7753.73203	-0.14394
7749.87445	0.06293
7746.01687	0.31349
7742.15930	-0.37962
7738.30172	-0.19789
7734.44414	0.20777
7730.58656	0.17245
7726.72898	0.31545
7722.87141	0.43816
7719.01383	0.45965
7715.15625	0.57320
7711.29867	0.52094
7707.44109	0.30018
7703.58352	0.05744
7699.72594	-0.05575
7695.86836	0.00620
7692.01078	0.00025
7688.15320	-0.14121
7684.29562	-0.15244
7680.43805	-0.10291
7676.58047	-0.12362
7672.72289	-0.15557
7668.86531	-0.06779
7665.00773	0.02999
7661.15016	0.05276
7657.29258	-0.00578
7653.43500	0.07606
7649.57742	0.30102
7645.71984	0.32256
7641.86227	0.23188
7638.00469	0.25071
7634.14711	0.12508
7630.28953	-0.08369
7626.43195	0.01074
7622.57437	0.20036
7618.71680	0.13741
7614.85922	-0.02228
7611.00164	0.02755
7607.14406	0.19412
7603.28648	0.19803
7599.42891	-0.00047
7595.57133	-0.02135
7591.71375	0.00795
7587.85617	0.06244
7583.99859	0.08423
7580.14102	0.00317
7576.28344	0.17627
7572.42586	0.29529
7568.56828	0.10102
7564.71070	-0.08786
7560.85312	-0.08094
7556.99555	0.03781
7553.13797	0.25134
7549.28039	0.16343
7545.42281	-0.13314
7541.56523	-0.16899
7537.70766	0.10385
7533.85008	0.10993
7529.99250	-0.02974
7526.13492	0.09229
7522.27734	0.26146
7518.41977	0.30405
7514.56219	0.12024
7510.70461	-0.00776
7506.84703	-0.08856
7502.98945	-0.08447
7499.13187	-0.06689
7495.27430	-0.08316
7491.41672	-0.08194
7487.55914	-0.01062
7483.70156	0.10101
7479.84398	0.10951
7475.98641	0.06602
7472.12883	0.06720
7468.27125	0.04463
7464.41367	0.03151
7460.55609	0.04543
7456.69852	0.06305
7452.84094	0.13187
7448.98336	0.22025
7445.12578	0.18728
7441.26820	0.07536
7437.41062	0.00374
7433.55305	0.00782
7429.69547	0.05026
7425.83789	-0.01059
7421.98031	-0.00622
7418.12273	0.20687
7414.26516	0.19888
7410.40758	0.03385
7406.55000	0.04147
7402.69242	0.08967
7398.83484	-0.00679
7394.97727	-0.10817
7391.11969	-0.01018
7387.26211	0.11722
7383.40453	0.19326
7379.54695	0.16462
7375.68937	0.08127
7371.83180	-0.05710
7367.97422	-0.04565
7364.11664	0.04768
7360.25906	0.01674
7356.40148	-0.14441
7352.54391	-0.02212
7348.68633	0.15077
7344.82875	0.13672
7340.97117	0.03454
7337.11359	-0.06902
7333.25602	-0.00079
7329.39844	0.10004
7325.54086	0.09206
7321.68328	0.02260
7317.82570	-0.06944
7313.96812	-0.07064
7310.11055	-0.03070
7306.25297	-0.01592
7302.39539	-0.00940
7298.53781	0.02520
7294.68023	0.04833
7290.82266	0.02285
7286.96508	0.05552
7283.10750	0.10552
7279.24992	0.09576
7275.39234	0.04709
7271.53477	0.04554
7267.67719	0.07053
7263.81961	0.07826
7259.96203	0.09654
7256.10445	0.05373
7252.24687	-0.06149
7248.38930	-0.05795
7244.53172	0.05019
7240.67414	0.05211
7236.81656	0.02932
7232.95898	0.06640
7229.10141	0.07531
7225.24383	0.04997
7221.38625	0.02403
7217.52867	0.01228
7213.67109	0.03382
7209.81352	0.07187
7205.95594	0.06871
7202.09836	0.00457
7198.24078	-0.01526
7194.38320	-0.01076
7190.52562	-0.02216
7186.66805	-0.00994
7182.81047	0.04182
7178.95289	0.04434
7175.09531	0.02016
7171.23773	0.02421
7167.38016	0.04615
7163.52258	0.05228
7159.66500	0.06042
7155.80742	0.07177
7151.94984	0.02827
7148.09227	-0.03833
7144.23469	-0.00014
7140.37711	0.07017
7136.51953	0.05765
7132.66195	0.04253
7128.80437	0.05516
7124.94680	0.04138
7121.08922	0.03366
7117.23164	0.04921
7113.37406	0.02909
7109.51648	-0.01547
7105.65891	-0.00360
7101.80133	0.00985
7097.94375	-0.01621
7094.08617	0.03557
7090.22859	0.11631
7086.37102	0.07678
7082.51344	0.01014
7078.65586	0.00861
7074.79828	0.02309
7070.94070	0.02579
7067.08312	0.00973
7063.22555	-0.03694
7059.36797	-0.02337
7055.51039	0.00943
7051.65281	-0.02286
7047.79523	-0.05620
7043.93766	-0.04007
7040.08008	-0.02059
7036.22250	-0.03855
7032.36492	-0.05094
7028.50734	-0.04351
7024.64977	-0.03239
7020.79219	-0.03141
7016.93461	0.00082
7013.07703	0.04725
7009.21945	0.05381
7005.36187	0.04008
7001.50430	0.02118
6997.64672	0.03771
6993.78914	0.05941
6989.93156	0.02612
6986.07398	0.01132
6982.21641	0.03790
6978.35883	0.00500
6974.50125	-0.01393
6970.64367	0.03009
6966.78609	0.03002
6962.92852	0.01725
6959.07094	0.05073
6955.21336	0.05207
6951.35578	0.01738
6947.49820	0.00759
6943.64062	0.00910
6939.78305	0.01397
6935.92547	0.01215
6932.06789	0.00013
6928.21031	0.04062
6924.35273	0.05060
6920.49516	0.03430
6916.63758	0.01399
6912.78000	0.00700
6908.92242	-0.03510
6905.06484	-0.01649
6901.20727	0.02301
6897.34969	0.02009
6893.49211	0.01749
6889.63453	0.01940
6885.77695	0.02569
6881.91937	0.02465
6878.06180	0.02512
6874.20422	0.05096
6870.34664	0.05600
6866.48906	-0.00910
6862.63148	-0.06652
6858.77391	-0.01237
6854.91633	0.02794
6851.05875	0.02731
6847.20117	0.04976
6843.34359	0.06650
6839.48602	0.05650
6835.62844	0.02208
6831.77086	-0.01894
6827.91328	-0.00888
6824.05570	0.02246
6820.19812	0.01545
6816.34055	-0.02493
6812.48297	-0.02697
6808.62539	0.01782
6804.76781	0.02668
6800.91023	0.01120
6797.05266	0.01808
6793.19508	0.02618
6789.33750	0.02645
6785.47992	0.03694
6781.62234	0.03488
6777.76477	0.00409
6773.90719	-0.01728
6770.04961	-0.00713
6766.19203	0.02356
6762.33445	0.04464
6758.47687	0.03621
6754.61930	-0.00975
6750.76172	-0.02988
6746.90414	-0.00623
6743.04656	0.00904
6739.18898	0.01055
6735.33141	0.02413
6731.47383	0.04731
6727.61625	0.04458
6723.75867	-0.00598
6719.90109	-0.02706
6716.04352	-0.00145
6712.18594	0.02651
6708.32836	0.03769
6704.47078	0.02204
6700.61320	0.00895
6696.75562	-0.00491
6692.89805	-0.01557
6689.04047	-0.00405
6685.18289	0.01469
6681.32531	0.01277
6677.46773	0.00242
6673.61016	0.00905
6669.75258	0.01123
6665.89500	0.01454
6662.03742	0.03291
6658.17984	0.03077
6654.32227	0.01202
6650.46469	0.01537
6646.60711	0.03165
6642.74953	0.00506
6638.89195	-0.01459
6635.03437	0.00380
6631.17680	0.01475
6627.31922	0.03584
6623.46164	0.03300
6619.60406	0.00624
6615.74648	0.01782
6611.88891	0.04534
6608.03133	0.05497
6604.17375	0.03078
6600.31617	-0.00119
6596.45859	-0.02249
6592.60102	-0.01602
6588.74344	0.00351
6584.88586	0.02382
6581.02828	0.03323
6577.17070	0.02120
6573.31312	0.00874
6569.45555	0.01580
6565.59797	0.01250
6561.74039	0.01766
6557.88281	0.05033
6554.02523	0.04501
6550.16766	0.00966
6546.31008	0.02107
6542.45250	0.04489
6538.59492	0.03488
6534.73734	0.03198
6530.87977	0.03388
6527.02219	0.00594
6523.16461	-0.00668
6519.30703	0.00269
6515.44945	-0.01135
6511.59187	-0.00698
6507.73430	0.03116
6503.87672	0.01610
6500.01914	-0.01351
6496.16156	0.00958
6492.30398	0.03089
6488.44641	0.00804
6484.58883	-0.01543
6480.73125	0.00878
6476.87367	0.03497
6473.01609	0.02775
6469.15852	0.01226
6465.30094	0.00142
6461.44336	0.00185
6457.58578	0.02787
6453.72820	0.04717
6449.87062	0.03163
6446.01305	0.00176
6442.15547	-0.00691
6438.29789	0.00688
6434.44031	0.01245
6430.58273	0.00041
6426.72516	-0.00162
6422.86758	0.00372
6419.01000	0.00056
6415.15242	0.01091
6411.29484	0.02819
6407.43727	0.02058
6403.57969	0.00364
6399.72211	-0.01262
6395.86453	-0.02270
6392.00695	-0.00895
6388.14937	0.00516
6384.29180	0.00526
6380.43422	0.01725
6376.57664	0.02984
6372.71906	0.02634
6368.86148	0.00043
6365.00391	0.00039
6361.14633	0.00698
6357.28875	0.00776
6353.43117	0.01302
6349.57359	0.01171
6345.71602	0.00431
6341.85844	0.00070
6338.00086	-0.00222
6334.14328	-0.00242
6330.28570	-0.00304
6326.42812	0.01038
6322.57055	0.00769
6318.71297	-0.01366
6314.85539	-0.00307
6310.99781	0.02566
6307.14023	0.03243
6303.28266	0.02887
6299.42508	0.01835
6295.56750	0.00161
6291.70992	-0.00763
6287.85234	-0.01039
6283.99477	-0.00834
6280.13719	0.00195
6276.27961	0.01711
6272.42203	0.02608
6268.56445	0.02117
6264.70687	0.00253
6260.84930	-0.01267
6256.99172	-0.00312
6253.13414	0.01286
6249.27656	0.01012
6245.41898	0.00027
6241.56141	0.00005
6237.70383	0.00116
6233.84625	-0.00111
6229.98867	0.00188
6226.13109	0.00518
6222.27352	0.00491
6218.41594	0.01668
6214.55836	0.02425
6210.70078	0.01257
6206.84320	0.00695
6202.98562	0.01037
6199.12805	0.00784
6195.27047	0.00748
6191.41289	0.00771
6187.55531	0.00553
6183.69773	0.01050
6179.84016	0.00721
6175.98258	-0.00761
6172.12500	-0.00585
6168.26742	0.00083
6164.40984	0.00439
6160.55227	0.01005
6156.69469	0.00852
6152.83711	0.00666
6148.97953	0.01583
6145.12195	0.01669
6141.26437	0.00853
6137.40680	0.01427
6133.54922	0.01638
6129.69164	-0.00131
6125.83406	-0.00464
6121.97648	0.00382
6118.11891	0.00318
6114.26133	0.00843
6110.40375	0.00621
6106.54617	-0.00058
6102.68859	0.01714
6098.83102	0.02977
6094.97344	0.01209
6091.11586	-0.00643
6087.25828	-0.01168
6083.40070	-0.00545
6079.54312	0.00257
6075.68555	0.00671
6071.82797	0.00914
6067.97039	0.00929
6064.11281	0.01273
6060.25523	0.01686
6056.39766	0.00426
6052.54008	0.00052
6048.68250	0.00664
6044.82492	-0.00407
6040.96734	0.00435
6037.10977	0.01856
6033.25219	0.00398
6029.39461	-0.00188
6025.53703	0.00584
6021.67945	0.00534
6017.82187	0.00525
6013.96430	0.01928
6010.10672	0.02143
6006.24914	0.00810
6002.39156	0.00538
5998.53398	0.00149
5994.67641	-0.00286
5990.81883	0.00451
5986.96125	0.00213
5983.10367	-0.00635
5979.24609	0.00211
5975.38852	0.01418
5971.53094	0.00893
5967.67336	-0.00086
5963.81578	-0.00483
5959.95820	-0.00327
5956.10062	-0.00064
5952.24305	0.00488
5948.38547	0.00045
5944.52789	-0.01058
5940.67031	-0.00759
5936.81273	-0.00123
5932.95516	-0.00123
5929.09758	-0.00506
5925.24000	-0.01188
5921.38242	-0.01229
5917.52484	0.00143
5913.66727	0.01115
5909.80969	0.00747
5905.95211	0.00375
5902.09453	0.00172
5898.23695	-0.00198
5894.37937	-0.00341
5890.52180	0.00064
5886.66422	0.00579
5882.80664	0.01020
5878.94906	0.01530
5875.09148	0.00739
5871.23391	-0.00915
5867.37633	-0.00307
5863.51875	0.00160
5859.66117	-0.00711
5855.80359	-0.00133
5851.94602	0.01218
5848.08844	0.00952
5844.23086	0.00991
5840.37328	0.02375
5836.51570	0.02610
5832.65812	0.01533
5828.80055	0.00512
5824.94297	-0.00266
5821.08539	0.00100
5817.22781	0.00773
5813.37023	0.00248
5809.51266	0.00070
5805.65508	0.00114
5801.79750	0.00262
5797.93992	0.00612
5794.08234	0.00791
5790.22477	0.01382
5786.36719	0.01435
5782.50961	0.00626
5778.65203	0.00454
5774.79445	0.00272
5770.93687	-0.00222
5767.07930	-0.00500
5763.22172	-0.00401
5759.36414	-0.00046
5755.50656	0.00069
5751.64898	-0.00151
5747.79141	-0.00146
5743.93383	0.00230
5740.07625	0.00287
5736.21867	-0.00394
5732.36109	-0.00162
5728.50352	0.01058
5724.64594	0.01594
5720.78836	0.00667
5716.93078	-0.00520
5713.07320	-0.00546
5709.21562	0.00017
5705.35805	0.00657
5701.50047	0.00680
5697.64289	-0.00191
5693.78531	-0.00748
5689.92773	-0.01101
5686.07016	-0.00952
5682.21258	0.00024
5678.35500	0.00722
5674.49742	0.00587
5670.63984	-0.00554
5666.78227	-0.01168
5662.92469	-0.00734
5659.06711	-0.01095
5655.20953	-0.01576
5651.35195	-0.01020
5647.49437	-0.00069
5643.63680	-0.00090
5639.77922	-0.00202
5635.92164	0.00144
5632.06406	-0.00163
5628.20648	0.00275
5624.34891	0.00754
5620.49133	0.00901
5616.63375	0.00849
5612.77617	0.00226
5608.91859	0.00344
5605.06102	0.01165
5601.20344	0.00444
5597.34586	-0.00412
5593.48828	0.00433
5589.63070	0.00778
5585.77312	0.00281
5581.91555	0.00066
5578.05797	0.00484
5574.20039	0.00064
5570.34281	0.00263
5566.48523	0.00550
5562.62766	0.00646
5558.77008	0.00784
5554.91250	0.00301
5551.05492	0.00066
5547.19734	0.00807
5543.33977	0.00934
5539.48219	0.00335
5535.62461	0.00482
5531.76703	0.00566
5527.90945	-0.00315
5524.05187	-0.00920
5520.19430	-0.00210
5516.33672	0.00618
5512.47914	0.00841
5508.62156	0.00679
5504.76398	-0.00146
5500.90641	-0.00432
5497.04883	0.00240
5493.19125	0.00346
5489.33367	-0.00140
5485.47609	0.00529
5481.61852	0.01636
5477.76094	0.01249
5473.90336	-0.00376
5470.04578	-0.00546
5466.18820	0.00759
5462.33062	0.01364
5458.47305	0.00616
5454.61547	0.00697
5450.75789	0.01734
5446.90031	0.01351
5443.04273	0.00114
5439.18516	-0.00044
5435.32758	0.00412
5431.47000	0.00760
5427.61242	0.00799
5423.75484	0.00509
5419.89727	0.00065
5416.03969	-0.00199
5412.18211	-0.00270
5408.32453	0.00409
5404.46695	0.00652
5400.60937	0.00626
5396.75180	0.01020
5392.89422	0.01225
5389.03664	0.00886
5385.17906	0.00606
5381.32148	0.00422
5377.46391	0.00620
5373.60633	0.00737
5369.74875	0.00055
5365.89117	0.00037
5362.03359	0.00815
5358.17602	0.00867
5354.31844	0.01179
5350.46086	0.01706
5346.60328	0.01202
5342.74570	0.00790
5338.88812	0.00515
5335.03055	0.00268
5331.17297	0.00856
5327.31539	0.00643
5323.45781	-0.00388
5319.60023	-0.00688
5315.74266	0.00065
5311.88508	0.00654
5308.02750	0.00581
5304.16992	0.00584
5300.31234	0.00558
5296.45477	0.00439
5292.59719	-0.00171
5288.73961	-0.00646
5284.88203	0.00290
5281.02445	0.00926
5277.16687	0.00416
5273.30930	-0.00044
5269.45172	-0.00121
5265.59414	0.00492
5261.73656	0.00671
5257.87898	-0.00076
5254.02141	0.00070
5250.16383	0.00341
5246.30625	-0.00080
5242.44867	0.00356
5238.59109	0.01010
5234.73352	0.00566
5230.87594	-0.00759
5227.01836	-0.01120
5223.16078	-0.01088
5219.30320	-0.00794
5215.44562	-0.00644
5211.58805	-0.00739
5207.73047	-0.00774
5203.87289	-0.00509
5200.01531	-0.00273
5196.15773	-0.00006
5192.30016	0.00612
5188.44258	0.00863
5184.58500	-0.00408
5180.72742	-0.00299
5176.86984	0.00450
5173.01227	0.00421
5169.15469	0.00514
5165.29711	0.00466
5161.43953	0.00012
5157.58195	-0.00082
5153.72437	0.00046
5149.86680	-0.00090
5146.00922	-0.00022
5142.15164	0.00348
5138.29406	0.00734
5134.43648	0.00878
5130.57891	0.00377
5126.72133	0.00058
5122.86375	0.00098
5119.00617	0.00175
5115.14859	0.00034
5111.29102	-0.00053
5107.43344	-0.00275
5103.57586	-0.00041
5099.71828	0.00405
5095.86070	0.00240
5092.00312	-0.00128
5088.14555	-0.00223
5084.28797	-0.00029
5080.43039	0.00270
5076.57281	0.00329
5072.71523	0.00351
5068.85766	0.00648
5065.00008	0.00876
5061.14250	0.00781
5057.28492	0.00759
5053.42734	0.00773
5049.56977	0.00393
5045.71219	0.00187
5041.85461	0.00364
5037.99703	0.00532
5034.13945	0.00682
5030.28187	0.00497
5026.42430	0.00268
5022.56672	0.00241
5018.70914	-0.00219
5014.85156	-0.00239
5010.99398	0.00447
5007.13641	0.00616
5003.27883	0.00431
4999.42125	0.00033
4995.56367	0.00032
4991.70609	0.00011
4987.84852	-0.00163
4983.99094	-0.00436
4980.13336	-0.00420
4976.27578	-0.00193
4972.41820	-0.00028
4968.56062	-0.00088
4964.70305	-0.00116
4960.84547	0.00357
4956.98789	0.00288
4953.13031	0.00048
4949.27273	0.00040
4945.41516	-0.00063
4941.55758	-0.00014
4937.70000	0.00286
4933.84242	-0.00032
4929.98484	-0.00284
4926.12727	-0.00067
4922.26969	-0.00423
4918.41211	-0.00176
4914.55453	-0.00004
4910.69695	-0.00069
4906.83937	0.00091
4902.98180	0.00095
4899.12422	-0.00102
4895.26664	-0.00135
4891.40906	0.00215
4887.55148	0.00832
4883.69391	0.00319
4879.83633	-0.00478
4875.97875	-0.00378
4872.12117	0.00270
4868.26359	0.00590
4864.40602	0.00696
4860.54844	0.00587
4856.69086	0.00082
4852.83328	-0.00052
4848.97570	0.00259
4845.11812	0.00137
4841.26055	-0.00345
4837.40297	-0.00370
4833.54539	-0.00275
4829.68781	0.00151
4825.83023	0.00472
4821.97266	0.00493
4818.11508	0.00260
4814.25750	-0.00029
4810.39992	-0.00183
4806.54234	0.00130
4802.68477	0.00039
4798.82719	-0.00274
4794.96961	-0.00143
4791.11203	0.00325
4787.25445	0.00569
4783.39687	0.00096
4779.53930	-0.00230
4775.68172	0.00199
4771.82414	0.00532
4767.96656	0.00373
4764.10898	0.00212
4760.25141	0.00076
4756.39383	-0.00071
4752.53625	-0.00011
4748.67867	0.00054
4744.82109	0.00029
4740.96352	0.00087
4737.10594	0.00105
4733.24836	0.00033
4729.39078	-0.00082
4725.53320	-0.00157
4721.67562	0.00096
4717.81805	0.00463
4713.96047	0.00471
4710.10289	0.00375
4706.24531	0.00288
4702.38773	0.00147
4698.53016	0.00162
4694.67258	0.00113
4690.81500	-0.00043
4686.95742	-0.00103
4683.09984	-0.00047
4679.24227	0.00187
4675.38469	0.00324
4671.52711	0.00296
4667.66953	0.00350
4663.81195	0.00414
4659.95437	0.00254
4656.09680	-0.00034
4652.23922	0.00132
4648.38164	0.00459
4644.52406	0.00237
4640.66648	0.00113
4636.80891	0.00331
4632.95133	0.00405
4629.09375	0.00411
4625.23617	0.00323
4621.37859	0.00023
4617.52102	-0.00189
4613.66344	-0.00199
4609.80586	-0.00132
4605.94828	0.00102
4602.09070	0.00353
4598.23312	0.00333
4594.37555	-0.00000
4590.51797	-0.00219
4586.66039	0.00059
4582.80281	0.00224
4578.94523	-0.00021
4575.08766	0.00187
4571.23008	0.00003
4567.37250	-0.00003
4563.51492	0.00188
4559.65734	-0.00199
4555.79977	-0.00193
4551.94219	0.00206
4548.08461	0.00128
4544.22703	0.00026
4540.36945	0.00081
4536.51187	0.00120
4532.65430	0.00161
4528.79672	0.00159
4524.93914	0.00148
4521.08156	0.00301
4517.22398	0.00272
4513.36641	0.00099
4509.50883	0.00149
4505.65125	0.00099
4501.79367	0.00033
4497.93609	0.00200
4494.07852	0.00318
4490.22094	0.00263
4486.36336	0.00063
4482.50578	-0.00030
4478.64820	-0.00075
4474.79062	-0.00138
4470.93305	-0.00013
4467.07547	0.00052
4463.21789	-0.00011
4459.36031	0.00123
4455.50273	0.00264
4451.64516	0.00244
4447.78758	0.00188
4443.93000	0.00073
4440.07242	0.00129
4436.21484	0.00311
4432.35727	0.00022
4428.49969	-0.00268
4424.64211	0.00123
4420.78453	0.00267
4416.92695	0.00019
4413.06937	-0.00050
4409.21180	-0.00076
4405.35422	-0.00192
4401.49664	-0.00272
4397.63906	-0.00194
4393.78148	0.00013
4389.92391	-0.00113
4386.06633	0.00189
4382.20875	0.00118
4378.35117	-0.00037
4374.49359	-0.00142
4370.63602	-0.00119
4366.77844	-0.00039
4362.92086	-0.00002
4359.06328	0.00050
4355.20570	0.00154
4351.34812	-0.00095
4347.49055	-0.00333
4343.63297	-0.00149
4339.77539	-0.00075
4335.91781	0.00482
4332.06023	0.00404
4328.20266	0.00070
4324.34508	0.00018
4320.48750	0.00139
4316.62992	0.00215
4312.77234	0.00317
4308.91477	0.00259
4305.05719	0.00143
4301.19961	0.00234
4297.34203	0.00287
4293.48445	0.00094
4289.62687	-0.00224
4285.76930	-0.00286
4281.91172	-0.00059
4278.05414	0.00106
4274.19656	0.00167
4270.33898	0.00211
4266.48141	0.00152
4262.62383	0.00156
4258.76625	0.00141
4254.90867	-0.00027
4251.05109	-0.00265
4247.19352	-0.00325
4243.33594	-0.00179
4239.47836	0.00138
4235.62078	0.00218
4231.76320	0.00018
4227.90562	-0.00038
4224.04805	0.00254
4220.19047	0.00355
4216.33289	0.00074
4212.47531	-0.00121
4208.61773	-0.00110
4204.76016	0.00075
4200.90258	0.00230
4197.04500	0.00106
4193.18742	0.00017
4189.32984	0.00114
4185.47227	0.00138
4181.61469	0.00036
4177.75711	-0.00009
4173.89953	0.00096
4170.04195	0.00214
4166.18437	0.00177
4162.32680	0.00200
4158.46922	0.00177
4154.61164	-0.00073
4150.75406	-0.00131
4146.89648	-0.00006
4143.03891	0.00059
4139.18133	0.00011
4135.32375	-0.00056
4131.46617	-0.00051
4127.60859	0.00041
4123.75102	0.00171
4119.89344	0.00210
4116.03586	0.00079
4112.17828	-0.00013
4108.32070	-0.00057
4104.46312	-0.00047
4100.60555	0.00068
4096.74797	0.00010
4092.89039	-0.00100
4089.03281	0.00016
4085.17523	0.00088
4081.31766	0.00078
4077.46008	0.00097
4073.60250	0.00129
4069.74492	0.00215
4065.88734	0.00109
4062.02977	-0.00210
4058.17219	-0.00197
4054.31461	0.00005
4050.45703	0.00024
4046.59945	0.00141
4042.74187	0.00096
4038.88430	0.00019
4035.02672	0.00111
4031.16914	0.00128
4027.31156	-0.00018
4023.45398	-0.00014
4019.59641	0.00040
4015.73883	-0.00021
4011.88125	0.00041
4008.02367	0.00227
4004.16609	0.00238
4000.30852	-0.00042
3996.45094	-0.00186
3992.59336	-0.00046
3988.73578	0.00017
3984.87820	0.00003
3981.02062	0.00075
3977.16305	0.00131
3973.30547	0.00192
3969.44789	0.00254
3965.59031	0.00173
3961.73273	0.00118
3957.87516	0.00115
3954.01758	-0.00051
3950.16000	-0.00089
3946.30242	0.00034
3942.44484	0.00036
3938.58727	0.00037
3934.72969	0.00006
3930.87211	-0.00034
3927.01453	0.00106
3923.15695	0.00214
3919.29937	0.00145
3915.44180	0.00092
3911.58422	0.00103
3907.72664	0.00035
3903.86906	-0.00073
3900.01148	0.00023
3896.15391	0.00134
3892.29633	0.00248
3888.43875	0.00358
3884.58117	0.00228
3880.72359	-0.00024
3876.86602	-0.00043
3873.00844	0.00072
3869.15086	0.00217
3865.29328	0.00364
3861.43570	0.00322
3857.57812	0.00208
3853.72055	0.00121
3849.86297	0.00081
3846.00539	-0.00041
3842.14781	-0.00136
3838.29023	-0.00001
3834.43266	0.00197
3830.57508	0.00363
3826.71750	0.00398
3822.85992	0.00205
3819.00234	0.00023
3815.14477	0.00021
3811.28719	-0.00060
3807.42961	-0.00099
3803.57203	0.00076
3799.71445	0.00094
3795.85687	-0.00057
3791.99930	0.00033
3788.14172	0.00287
3784.28414	0.00369
3780.42656	0.00141
3776.56898	-0.00070
3772.71141	-0.00077
3768.85383	-0.00018
3764.99625	0.00052
3761.13867	0.00090
3757.28109	0.00144
3753.42352	0.00207
3749.56594	0.00034
3745.70836	-0.00146
3741.85078	-0.00085
3737.99320	0.00053
3734.13562	0.00170
3730.27805	0.00235
3726.42047	0.00144
3722.56289	-0.00026
3718.70531	0.00022
3714.84773	0.00052
3710.99016	0.00029
3707.13258	0.00087
3703.27500	0.00029
3699.41742	-0.00071
3695.55984	-0.00118
3691.70227	-0.00052
3687.84469	0.00092
3683.98711	0.00103
3680.12953	0.00158
3676.27195	0.00249
3672.41437	0.00203
3668.55680	0.00160
3664.69922	0.00066
3660.84164	-0.00081
3656.98406	-0.00139
3653.12648	-0.00049
3649.26891	0.00191
3645.41133	0.00131
3641.55375	0.00063
3637.69617	0.00070
3633.83859	0.00017
3629.98102	-0.00135
3626.12344	0.00022
3622.26586	0.00106
3618.40828	0.00074
3614.55070	-0.00087
3610.69312	-0.00173
3606.83555	-0.00115
3602.97797	-0.00088
3599.12039	-0.00139
3595.26281	-0.00034
3591.40523	0.00092
3587.54766	0.00044
3583.69008	-0.00046
3579.83250	-0.00064
3575.97492	-0.00046
3572.11734	-0.00010
3568.25977	0.00068
3564.40219	0.00144
3560.54461	0.00088
3556.68703	0.00015
3552.82945	0.00055
3548.97187	0.00063
3545.11430	-0.00027
3541.25672	-0.00041
3537.39914	0.00009
3533.54156	0.00076
3529.68398	0.00070
3525.82641	0.00081
3521.96883	0.00074
3518.11125	0.00016
3514.25367	0.00011
3510.39609	0.00006
3506.53852	-0.00061
3502.68094	-0.00066
3498.82336	0.00040
3494.96578	0.00085
3491.10820	0.00091
3487.25062	0.00124
3483.39305	0.00072
3479.53547	-0.00019
3475.67789	-0.00001
3471.82031	0.00003
3467.96273	-0.00059
3464.10516	-0.00002
3460.24758	0.00076
3456.39000	0.00070
3452.53242	0.00170
3448.67484	0.00218
3444.81727	0.00019
3440.95969	-0.00070
3437.10211	0.00024
3433.24453	0.00044
3429.38695	0.00004
3425.52937	0.00054
3421.67180	0.00136
3417.81422	0.00107
3413.95664	0.00042
3410.09906	0.00075
3406.24148	0.00087
3402.38391	-0.00000
3398.52633	0.00002
3394.66875	0.00075
3390.81117	0.00034
3386.95359	0.00023
3383.09602	0.00087
3379.23844	0.00039
3375.38086	-0.00047
3371.52328	-0.00055
3367.66570	0.00052
3363.80812	0.00131
3359.95055	0.00045
3356.09297	-0.00012
3352.23539	0.00010
3348.37781	-0.00009
3344.52023	-0.00026
3340.66266	-0.00006
3336.80508	0.00014
3332.94750	0.00014
3329.08992	0.00008
3325.23234	0.00025
3321.37477	-0.00013
3317.51719	-0.00053
3313.65961	-0.00002
3309.80203	0.00024
3305.94445	-0.00005
3302.08687	0.00028
3298.22930	0.00098
3294.37172	0.00088
3290.51414	0.00018
3286.65656	0.00007
3282.79898	0.00047
3278.94141	0.00048
3275.08383	0.00062
3271.22625	0.00081
3267.36867	0.00003
3263.51109	-0.00039
3259.65352	0.00024
3255.79594	0.00042
3251.93836	0.00021
3248.08078	0.00008
3244.22320	0.00021
3240.36562	0.00079
3236.50805	0.00089
3232.65047	0.00042
3228.79289	-0.00003
3224.93531	-0.00041
3221.07773	-0.00025
3217.22016	0.00054
3213.36258	0.00086
3209.50500	0.00048
3205.64742	0.00014
3201.78984	0.00010
3197.93227	-0.00008
3194.07469	0.00048
3190.21711	0.00082
3186.35953	0.00067
3182.50195	0.00024
3178.64437	0.00013
3174.78680	0.00050
3170.92922	0.00091
3167.07164	0.00093
3163.21406	0.00050
3159.35648	-0.00001
3155.49891	0.00032
3151.64133	-0.00012
3147.78375	-0.00059
3143.92617	0.00036
3140.06859	0.00009
3136.21102	-0.00026
3132.35344	-0.00005
3128.49586	-0.00015
3124.63828	0.00004
3120.78070	-0.00005
3116.92312	-0.00003
3113.06555	-0.00003
3109.20797	-0.00046
3105.35039	-0.00067
3101.49281	-0.00056
3097.63523	-0.00042
3093.77766	-0.00005
3089.92008	0.00008
3086.06250	0.00057
3082.20492	0.00068
3078.34734	0.00061
3074.48977	0.00052
3070.63219	0.00045
3066.77461	0.00043
3062.91703	0.00037
3059.05945	0.00024
3055.20187	0.00021
3051.34430	0.00028
3047.48672	0.00028
3043.62914	0.00041
3039.77156	0.00052
3035.91398	0.00009
3032.05641	-0.00038
3028.19883	-0.00034
3024.34125	-0.00018
3020.48367	0.00005
3016.62609	0.00040
3012.76852	0.00044
3008.91094	0.00038
3005.05336	0.00040
3001.19578	-0.00000
2997.33820	-0.00044
2993.48062	-0.00029
2989.62305	0.00013
2985.76547	0.00065
2981.90789	0.00072
2978.05031	0.00007
2974.19273	-0.00001
2970.33516	0.00005
2966.47758	-0.00022
2962.62000	0.00024
2958.76242	0.00023
2954.90484	0.00000
2951.04727	0.00001
2947.18969	0.00010
2943.33211	0.00003
2939.47453	-0.00003
2935.61695	-0.00000
2931.75937	0.00005
2927.90180	0.00037
2924.04422	0.00062
2920.18664	0.00067
2916.32906	0.00059
2912.47148	0.00042
2908.61391	0.00037
2904.75633	0.00012
2900.89875	-0.00024
2897.04117	-0.00004
2893.18359	0.00013
2889.32602	0.00028
2885.46844	0.00051
2881.61086	0.00014
2877.75328	-0.00004
2873.89570	0.00029
2870.03812	0.00027
2866.18055	0.00023
2862.32297	0.00066
2858.46539	0.00045
2854.60781	-0.00027
2850.75023	-0.00032
2846.89266	-0.00014
2843.03508	-0.00018
2839.17750	-0.00030
2835.31992	-0.00026
2831.46234	-0.00002
2827.60477	-0.00017
2823.74719	-0.00072
2819.88961	-0.00077
2816.03203	-0.00029
2812.17445	0.00009
2808.31687	0.00022
2804.45930	0.00018
2800.60172	-0.00011
2796.74414	-0.00009
2792.88656	0.00013
2789.02898	0.00012
2785.17141	0.00007
2781.31383	0.00011
2777.45625	0.00021
2773.59867	0.00032
2769.74109	0.00028
2765.88352	0.00005
2762.02594	-0.00007
2758.16836	-0.00007
2754.31078	0.00010
2750.45320	0.00049
2746.59562	0.00056
2742.73805	0.00024
2738.88047	0.00003
2735.02289	0.00007
2731.16531	0.00013
2727.30773	0.00018
2723.45016	0.00033
2719.59258	0.00043
2715.73500	0.00036
2711.87742	0.00034
2708.01984	0.00032
2704.16227	0.00018
2700.30469	0.00025
2696.44711	0.00032
2692.58953	0.00004
2688.73195	-0.00030
2684.87437	-0.00029
2681.01680	0.00014
2677.15922	0.00014
2673.30164	-0.00031
2669.44406	-0.00029
2665.58648	-0.00003
2661.72891	-0.00008
2657.87133	-0.00014
2654.01375	-0.00004
2650.15617	-0.00017
2646.29859	-0.00032
2642.44102	-0.00015
2638.58344	0.00003
2634.72586	0.00004
2630.86828	0.00016
2627.01070	0.00030
2623.15312	0.00020
2619.29555	-0.00002
2615.43797	0.00003
2611.58039	-0.00014
2607.72281	-0.00015
2603.86523	-0.00009
2600.00766	-0.00035
2596.15008	-0.00034
2592.29250	-0.00012
2588.43492	-0.00022
2584.57734	-0.00027
2580.71977	-0.00012
2576.86219	0.00004
2573.00461	0.00008
2569.14703	0.00009
2565.28945	0.00019
2561.43187	0.00017
2557.57430	0.00012
2553.71672	0.00011
2549.85914	0.00004
2546.00156	0.00003
2542.14398	0.00022
2538.28641	0.00027
2534.42883	0.00014
2530.57125	-0.00005
2526.71367	-0.00012
2522.85609	0.00026
2518.99852	0.00048
2515.14094	0.00021
2511.28336	0.00006
2507.42578	-0.00004
2503.56820	-0.00022
2499.71062	-0.00000
2495.85305	0.00026
2491.99547	0.00018
2488.13789	0.00018
2484.28031	0.00028
2480.42273	0.00020
2476.56516	0.00015
2472.70758	0.00016
2468.85000	-0.00006
2464.99242	-0.00030
2461.13484	0.00016
2457.27727	0.00022
2453.41969	-0.00020
2449.56211	-0.00026
2445.70453	-0.00027
2441.84695	-0.00043
2437.98937	-0.00047
2434.13180	-0.00038
2430.27422	-0.00020
2426.41664	-0.00010
2422.55906	-0.00010
2418.70148	0.00035
2414.84391	0.00010
2410.98633	-0.00020
2407.12875	0.00030
2403.27117	0.00010
2399.41359	-0.00015
2395.55602	0.00006
2391.69844	0.00008
2387.84086	0.00004
2383.98328	0.00012
2380.12570	0.00057
2376.26812	0.00093
2372.41055	-0.00027
2368.55297	-0.00203
2364.69539	-0.00187
2360.83781	-0.00182
2356.98023	-0.00051
2353.12266	0.00170
2349.26508	0.00250
2345.40750	0.00299
2341.54992	0.00148
2337.69234	-0.00130
2333.83477	-0.00114
2329.97719	0.00158
2326.11961	0.00328
2322.26203	0.00125
2318.40445	-0.00100
2314.54687	-0.00067
2310.68930	0.00026
2306.83172	0.00033
2302.97414	0.00043
2299.11656	0.00063
2295.25898	0.00039
2291.40141	0.00008
2287.54383	0.00009
2283.68625	0.00012
2279.82867	0.00003
2275.97109	0.00014
2272.11352	0.00038
2268.25594	0.00046
2264.39836	0.00040
2260.54078	0.00017
2256.68320	-0.00017
2252.82562	-0.00042
2248.96805	-0.00043
2245.11047	-0.00029
2241.25289	-0.00007
2237.39531	0.00003
2233.53773	0.00002
2229.68016	0.00011
2225.82258	0.00024
2221.96500	0.00025
2218.10742	0.00018
2214.24984	0.00003
2210.39227	-0.00002
2206.53469	0.00014
2202.67711	0.00022
2198.81953	0.00011
2194.96195	0.00003
2191.10437	0.00002
2187.24680	-0.00002
2183.38922	0.00005
2179.53164	0.00032
2175.67406	0.00047
2171.81648	0.00029
2167.95891	-0.00004
2164.10133	-0.00012
2160.24375	0.00000
2156.38617	0.00016
2152.52859	0.00032
2148.67102	0.00031
2144.81344	0.00023
2140.95586	0.00022
2137.09828	0.00018
2133.24070	0.00010
2129.38312	-0.00004
2125.52555	-0.00001
2121.66797	0.00014
2117.81039	0.00012
2113.95281	-0.00003
2110.09523	0.00001
2106.23766	0.00022
2102.38008	0.00018
2098.52250	0.00023
2094.66492	0.00037
2090.80734	0.00026
2086.94977	0.00007
2083.09219	0.00005
2079.23461	0.00012
2075.37703	0.00006
2071.51945	-0.00002
2067.66187	0.00003
2063.80430	-0.00001
2059.94672	-0.00005
2056.08914	0.00014
2052.23156	0.00031
2048.37398	0.00025
2044.51641	0.00013
2040.65883	0.00002
2036.80125	0.00005
2032.94367	0.00017
2029.08609	-0.00003
2025.22852	-0.00024
2021.37094	-0.00006
2017.51336	0.00019
2013.65578	0.00026
2009.79820	0.00018
2005.94062	0.00016
2002.08305	0.00006
1998.22547	-0.00008
1994.36789	0.00003
1990.51031	0.00028
1986.65273	0.00028
1982.79516	0.00004
1978.93758	-0.00013
1975.08000	-0.00003
1971.22242	0.00008
1967.36484	0.00019
1963.50727	0.00031
1959.64969	0.00039
1955.79211	0.00017
1951.93453	-0.00010
1948.07695	-0.00007
1944.21937	0.00000
1940.36180	0.00006
1936.50422	0.00018
1932.64664	0.00029
1928.78906	0.00013
1924.93148	-0.00006
1921.07391	0.00004
1917.21633	0.00027
1913.35875	0.00025
1909.50117	0.00015
1905.64359	0.00008
1901.78602	0.00003
1897.92844	0.00007
1894.07086	0.00006
1890.21328	-0.00009
1886.35570	-0.00003
1882.49812	0.00014
1878.64055	0.00015
1874.78297	0.00016
1870.92539	0.00029
1867.06781	0.00036
1863.21023	0.00021
1859.35266	-0.00003
1855.49508	-0.00003
1851.63750	0.00017
1847.77992	0.00010
1843.92234	-0.00009
1840.06477	-0.00003
1836.20719	0.00002
1832.34961	0.00003
1828.49203	0.00013
1824.63445	0.00024
1820.77687	0.00027
1816.91930	0.00021
1813.06172	0.00003
1809.20414	-0.00001
1805.34656	0.00012
1801.48898	0.00008
1797.63141	0.00005
1793.77383	0.00018
1789.91625	0.00016
1786.05867	0.00004
1782.20109	0.00008
1778.34352	0.00018
1774.48594	0.00025
1770.62836	0.00016
1766.77078	0.00001
1762.91320	0.00019
1759.05562	0.00039
1755.19805	0.00013
1751.34047	-0.00011
1747.48289	0.00007
1743.62531	0.00010
1739.76773	-0.00007
1735.91016	0.00028
1732.05258	0.00006
1728.19500	-0.00008
1724.33742	-0.00001
1720.47984	-0.00007
1716.62227	0.00018
1712.76469	0.00008
1708.90711	-0.00008
1705.04953	0.00011
1701.19195	0.00045
1697.33437	0.00033
1693.47680	0.00008
1689.61922	0.00014
1685.76164	0.00034
1681.90406	0.00016
1678.04648	-0.00003
1674.18891	0.00010
1670.33133	0.00029
1666.47375	0.00012
1662.61617	-0.00024
1658.75859	0.00011
1654.90102	0.00028
1651.04344	0.00003
1647.18586	-0.00008
1643.32828	-0.00020
1639.47070	-0.00000
1635.61312	0.00023
1631.75555	0.00009
1627.89797	0.00013
1624.04039	0.00031
1620.18281	0.00020
1616.32523	0.00001
1612.46766	-0.00010
1608.61008	-0.00013
1604.75250	-0.00010
1600.89492	-0.00014
1597.03734	-0.00014
1593.17977	-0.00003
1589.32219	0.00007
1585.46461	0.00010
1581.60703	0.00012
1577.74945	0.00017
1573.89187	0.00027
1570.03430	0.00043
1566.17672	0.00045
1562.31914	0.00031
1558.46156	0.00012
1554.60398	0.00011
1550.74641	0.00005
1546.88883	-0.00009
1543.03125	-0.00008
1539.17367	0.00018
1535.31609	0.00028
1531.45852	0.00031
1527.60094	0.00015
1523.74336	-0.00025
1519.88578	-0.00006
1516.02820	0.00048
1512.17062	0.00034
1508.31305	0.00005
1504.45547	0.00026
1500.59789	0.00034
1496.74031	0.00029
1492.88273	0.00009
1489.02516	-0.00013
1485.16758	0.00003
1481.31000	0.00024
1477.45242	0.00023
1473.59484	0.00014
1469.73727	0.00006
1465.87969	-0.00012
1462.02211	-0.00026
1458.16453	-0.00016
1454.30695	0.00013
1450.44937	0.00036
1446.59180	0.00037
1442.73422	0.00013
1438.87664	0.00002
1435.01906	0.00016
1431.16148	0.00014
1427.30391	0.00012
1423.44633	0.00021
1419.58875	0.00012
1415.73117	-0.00010
1411.87359	-0.00016
1408.01602	-0.00001
1404.15844	0.00024
1400.30086	0.00019
1396.44328	0.00010
1392.58570	0.00008
1388.72812	0.00003
1384.87055	0.00002
1381.01297	0.00006
1377.15539	0.00009
1373.29781	0.00012
1369.44023	0.00015
1365.58266	0.00018
1361.72508	0.00015
1357.86750	0.00009
1354.00992	0.00007
1350.15234	-0.00003
1346.29477	-0.00013
1342.43719	-0.00001
1338.57961	0.00018
1334.72203	0.00016
1330.86445	-0.00001
1327.00687	-0.00008
1323.14930	-0.00006
1319.29172	-0.00004
1315.43414	0.00001
1311.57656	0.00005
1307.71898	0.00010
1303.86141	0.00009
1300.00383	0.00007
1296.14625	0.00006
1292.28867	0.00008
1288.43109	0.00009
1284.57352	0.00002
1280.71594	0.00008
1276.85836	0.00017
1273.00078	0.00008
1269.14320	-0.00005
1265.28562	-0.00005
1261.42805	0.00002
1257.57047	-0.00000
1253.71289	-0.00007
1249.85531	-0.00010
1245.99773	-0.00010
1242.14016	-0.00005
1238.28258	0.00004
1234.42500	0.00013
1230.56742	0.00014
1226.70984	-0.00006
1222.85227	-0.00001
1218.99469	0.00009
1215.13711	0.00008
1211.27953	0.00002
1207.42195	-0.00012
1203.56437	-0.00017
1199.70680	0.00006
1195.84922	0.00023
1191.99164	0.00006
1188.13406	-0.00014
1184.27648	-0.00025
1180.41891	-0.00036
1176.56133	-0.00024
1172.70375	0.00007
1168.84617	0.00016
1164.98859	0.00024
1161.13102	0.00027
1157.27344	0.00022
1153.41586	0.00013
1149.55828	0.00023
1145.70070	0.00009
1141.84312	-0.00021
1137.98555	0.00007
1134.12797	0.00032
1130.27039	0.00018
1126.41281	0.00023
1122.55523	0.00032
1118.69766	0.00026
1114.84008	0.00013
1110.98250	-0.00009
1107.12492	-0.00010
1103.26734	0.00011
1099.40977	0.00014
1095.55219	-0.00006
1091.69461	-0.00031
1087.83703	-0.00018
1083.97945	0.00020
1080.12187	0.00036
1076.26430	0.00019
1072.40672	0.00007
1068.54914	0.00001
1064.69156	-0.00001
1060.83398	0.00017
1056.97641	0.00017
1053.11883	0.00007
1049.26125	0.00012
1045.40367	0.00003
1041.54609	0.00005
1037.68852	0.00018
1033.83094	0.00008
1029.97336	-0.00011
1026.11578	0.00000
1022.25820	0.00039
1018.40062	0.00033
1014.54305	-0.00004
1010.68547	-0.00001
1006.82789	0.00010
1002.97031	0.00021
999.11273	0.00023
995.25516	0.00000
991.39758	-0.00010
987.54000	0.00008
983.68242	0.00037
979.82484	0.00030
975.96727	0.00007
972.10969	0.00036
968.25211	0.00050
964.39453	0.00036
960.53695	0.00015
956.67937	0.00009
952.82180	0.00011
948.96422	0.00010
945.10664	0.00011
941.24906	0.00017
937.39148	0.00017
933.53391	0.00017
929.67633	0.00014
925.81875	-0.00014
921.96117	-0.00019
918.10359	0.00017
914.24602	0.00029
910.38844	0.00023
906.53086	0.00032
902.67328	0.00032
898.81570	0.00016
894.95812	-0.00002
891.10055	0.00019
887.24297	0.00028
883.38539	-0.00030
879.52781	-0.00003
875.67023	0.00050
871.81266	0.00061
867.95508	0.00029
864.09750	0.00011
860.23992	0.00008
856.38234	-0.00011
852.52477	-0.00021
848.66719	-0.00006
844.80961	0.00036
840.95203	0.00042
837.09445	-0.00031
833.23687	-0.00052
829.37930	0.00030
825.52172	0.00067
821.66414	-0.00007
817.80656	-0.00029
813.94898	0.00019
810.09141	0.00028
806.23383	0.00014
802.37625	0.00010
798.51867	-0.00005
794.66109	-0.00010
790.80352	0.00017
786.94594	0.00025
783.08836	0.00002
779.23078	0.00015
775.37320	0.00041
771.51562	0.00020
767.65805	0.00014
763.80047	0.00035
759.94289	0.00020
756.08531	0.00014
752.22773	0.00015
748.37016	-0.00010
744.51258	0.00001
740.65500	0.00029
736.79742	0.00023
732.93984	-0.00002
729.08227	0.00015
725.22469	0.00034
721.36711	0.00004
717.50953	0.00013
713.65195	0.00057
709.79437	0.00041
705.93680	-0.00004
702.07922	-0.00016
698.22164	-0.00001
694.36406	0.00014
690.50648	0.00030
686.64891	0.00039
682.79133	0.00061
678.93375	0.00088
675.07617	0.00044
671.21859	0.00052
667.36102	0.00137
663.50344	0.00052
659.64586	-0.00038
655.78828	-0.00022
651.93070	-0.00004
648.07312	-0.00029
644.21555	-0.00013
640.35797	0.00089
636.50039	0.00102
632.64281	0.00010
628.78523	0.00018
624.92766	0.00047
621.07008	0.00030
617.21250	0.00061
613.35492	0.00033
609.49734	0.00009
605.63977	0.00097
601.78219	0.00063
597.92461	-0.00031
594.06703	0.00002
590.20945	0.00065
586.35187	0.00056
582.49430	0.00028
578.63672	0.00026
574.77914	0.00072
570.92156	0.00127
567.06398	0.00079
563.20641	-0.00014
559.34883	0.00013
555.49125	0.00040
551.63367	-0.00022
547.77609	0.00053
543.91852	0.00131
540.06094	0.00087
536.20336	0.00087
532.34578	0.00062
528.48820	0.00026
524.63062	-0.00025
520.77305	-0.00092
516.91547	-0.00065
513.05789	0.00053
509.20031	0.00107
505.34273	-0.00018
501.48516	-0.00196
497.62758	-0.00106
493.77000	0.00149
489.91242	0.00252
486.05484	0.00228
482.19727	0.00225
478.33969	0.00190
474.48211	-0.00103
470.62453	-0.00384
466.76695	0.00059
462.90937	0.00339
459.05180	-0.00241
455.19422	-0.00097
451.33664	0.00239
447.47906	0.00150
443.62148	0.00155
439.76391	0.00237
435.90633	0.00278
432.04875	0.00265
428.19117	0.00192
424.33359	0.00091
420.47602	0.00125
416.61844	0.00168
412.76086	0.00024
408.90328	-0.00003
405.04570	0.00366
401.18812	0.00865
397.33055	0.00390
393.47297	-0.00087
389.61539	0.00241
385.75781	0.00069
381.90023	0.01240
378.04266	0.02715
374.18508	0.00514
370.32750	-0.00975
366.46992	0.00343
362.61234	0.00907
358.75477	0.01375
354.89719	0.01755
351.03961	0.00831
347.18203	-0.00970
343.32445	-0.01796
339.46687	0.01388
335.60930	0.04391
331.75172	0.11439
327.89414	0.26716
324.03656	0.14866
320.17898	-0.03941
316.32141	0.21091
312.46383	0.11820
308.60625	-0.84859
304.74867	-0.84859
300.89109	-0.84859
