14998.26375	0.40077
14994.40617	0.42274
14990.54859	0.65582
14986.69102	0.53760
14982.83344	0.37230
14978.97586	0.25706
14975.11828	0.32543
14971.26070	0.78609
14967.40312	0.67586
14963.54555	0.26134
14959.68797	0.17081
14955.83039	0.16713
14951.97281	0.13661
14948.11523	0.11951
14944.25766	0.14212
14940.40008	0.15652
14936.54250	0.36957
14932.68492	0.44945
14928.82734	0.08360
14924.96977	-0.09275
14921.11219	0.20213
14917.25461	0.66215
14913.39703	0.61605
14909.53945	0.41944
14905.68187	0.53754
14901.82430	0.43860
14897.96672	0.09195
14894.10914	0.10990
14890.25156	0.20531
14886.39398	0.08863
14882.53641	0.15897
14878.67883	0.48116
14874.82125	0.50914
14870.96367	0.36651
14867.10609	0.56418
14863.24852	0.58749
14859.39094	0.45116
14855.53336	0.43272
14851.67578	0.36222
14847.81820	0.36131
14843.96062	0.44007
14840.10305	0.49649
14836.24547	0.67692
14832.38789	0.73621
14828.53031	0.59204
14824.67273	0.32455
14820.81516	0.17290
14816.95758	0.28940
14813.10000	0.32957
14809.24242	0.15927
14805.38484	0.12650
14801.52727	0.26527
14797.66969	0.53220
14793.81211	0.72290
14789.95453	0.76856
14786.09695	0.46745
14782.23937	0.27321
14778.38180	0.17476
14774.52422	0.17167
14770.66664	0.22048
14766.80906	0.27636
14762.95148	0.48169
14759.09391	0.59519
14755.23633	0.47224
14751.37875	0.41664
14747.52117	0.36327
14743.66359	0.39023
14739.80602	0.46644
14735.94844	0.33285
14732.09086	0.18962
14728.23328	0.20256
14724.37570	0.20356
14720.51812	0.21249
14716.66055	0.37329
14712.80297	0.46540
14708.94539	0.40311
14705.08781	0.41126
14701.23023	0.43263
14697.37266	0.36666
14693.51508	0.28893
14689.65750	0.33459
14685.79992	0.47537
14681.94234	0.46422
14678.08477	0.47442
14674.22719	0.56437
14670.36961	0.45239
14666.51203	0.38324
14662.65445	0.42043
14658.79687	0.35673
14654.93930	0.34278
14651.08172	0.42894
14647.22414	0.49670
14643.36656	0.57231
14639.50898	0.56833
14635.65141	0.52242
14631.79383	0.69349
14627.93625	0.70423
14624.07867	0.44641
14620.22109	0.45671
14616.36352	0.36341
14612.50594	0.24462
14608.64836	0.46155
14604.79078	0.67370
14600.93320	0.46104
14597.07562	0.26129
14593.21805	0.36807
14589.36047	0.48589
14585.50289	0.44465
14581.64531	0.40789
14577.78773	0.43884
14573.93016	0.28293
14570.07258	0.03021
14566.21500	0.09235
14562.35742	0.26532
14558.49984	0.38557
14554.64227	0.54327
14550.78469	0.43231
14546.92711	0.29646
14543.06953	0.31003
14539.21195	0.34695
14535.35437	0.34589
14531.49680	0.40672
14527.63922	0.62912
14523.78164	0.59368
14519.92406	0.36994
14516.06648	0.26681
14512.20891	0.22818
14508.35133	0.23222
14504.49375	0.35471
14500.63617	0.38773
14496.77859	0.30636
14492.92102	0.31135
14489.06344	0.37717
14485.20586	0.31552
14481.34828	0.22855
14477.49070	0.27119
14473.63312	0.33452
14469.77555	0.32571
14465.91797	0.40061
14462.06039	0.46908
14458.20281	0.41559
14454.34523	0.42088
14450.48766	0.31456
14446.63008	0.23721
14442.77250	0.31658
14438.91492	0.29993
14435.05734	0.26991
14431.19977	0.28828
14427.34219	0.31061
14423.48461	0.35210
14419.62703	0.33972
14415.76945	0.34724
14411.91187	0.26336
14408.05430	0.18800
14404.19672	0.34141
14400.33914	0.41905
14396.48156	0.30976
14392.62398	0.20820
14388.76641	0.13771
14384.90883	0.18656
14381.05125	0.30041
14377.19367	0.26811
14373.33609	0.21884
14369.47852	0.36751
14365.62094	0.45668
14361.76336	0.36003
14357.90578	0.33130
14354.04820	0.36039
14350.19062	0.39880
14346.33305	0.37602
14342.47547	0.28879
14338.61789	0.30549
14334.76031	0.22929
14330.90273	0.18397
14327.04516	0.40373
14323.18758	0.45535
14319.33000	0.27402
14315.47242	0.29864
14311.61484	0.36907
14307.75727	0.37975
14303.89969	0.31139
14300.04211	0.24299
14296.18453	0.26922
14292.32695	0.31325
14288.46937	0.32994
14284.61180	0.31520
14280.75422	0.35468
14276.89664	0.45026
14273.03906	0.40579
14269.18148	0.31855
14265.32391	0.35797
14261.46633	0.38691
14257.60875	0.35663
14253.75117	0.42091
14249.89359	0.44200
14246.03602	0.24204
14242.17844	0.11210
14238.32086	0.22484
14234.46328	0.37259
14230.60570	0.38337
14226.74812	0.34641
14222.89055	0.43165
14219.03297	0.45784
14215.17539	0.34886
14211.31781	0.29445
14207.46023	0.25580
14203.60266	0.22761
14199.74508	0.28911
14195.88750	0.27399
14192.02992	0.22649
14188.17234	0.38295
14184.31477	0.43212
14180.45719	0.30946
14176.59961	0.29319
14172.74203	0.34934
14168.88445	0.33242
14165.02687	0.30629
14161.16930	0.28282
14157.31172	0.29364
14153.45414	0.31509
14149.59656	0.25661
14145.73898	0.25712
14141.88141	0.35748
14138.02383	0.39404
14134.16625	0.38011
14130.30867	0.34317
14126.45109	0.27787
14122.59352	0.28092
14118.73594	0.27601
14114.87836	0.26304
14111.02078	0.31141
14107.16320	0.30280
14103.30562	0.34417
14099.44805	0.40379
14095.59047	0.32142
14091.73289	0.36320
14087.87531	0.43741
14084.01773	0.25036
14080.16016	0.17669
14076.30258	0.22710
14072.44500	0.21546
14068.58742	0.22642
14064.72984	0.19515
14060.87227	0.17936
14057.01469	0.26969
14053.15711	0.33175
14049.29953	0.34238
14045.44195	0.35582
14041.58437	0.30170
14037.72680	0.28587
14033.86922	0.33668
14030.01164	0.33732
14026.15406	0.36016
14022.29648	0.42995
14018.43891	0.43711
14014.58133	0.42834
14010.72375	0.46057
14006.86617	0.40790
14003.00859	0.33982
13999.15102	0.34116
13995.29344	0.33865
13991.43586	0.34981
13987.57828	0.35131
13983.72070	0.29819
13979.86312	0.24296
13976.00555	0.20846
13972.14797	0.23140
13968.29039	0.26100
13964.43281	0.26689
13960.57523	0.31946
13956.71766	0.38716
13952.86008	0.38824
13949.00250	0.35074
13945.14492	0.35375
13941.28734	0.30873
13937.42977	0.27077
13933.57219	0.29897
13929.71461	0.28571
13925.85703	0.30490
13921.99945	0.39496
13918.14187	0.39812
13914.28430	0.38757
13910.42672	0.42575
13906.56914	0.47181
13902.71156	0.48266
13898.85398	0.41518
13894.99641	0.36017
13891.13883	0.39278
13887.28125	0.37463
13883.42367	0.27782
13879.56609	0.25397
13875.70852	0.25483
13871.85094	0.25258
13867.99336	0.29962
13864.13578	0.27451
13860.27820	0.23589
13856.42062	0.28639
13852.56305	0.34560
13848.70547	0.33107
13844.84789	0.21577
13840.99031	0.17906
13837.13273	0.27196
13833.27516	0.28340
13829.41758	0.25955
13825.56000	0.29387
13821.70242	0.32951
13817.84484	0.32738
13813.98727	0.35421
13810.12969	0.35825
13806.27211	0.27995
13802.41453	0.25805
13798.55695	0.26033
13794.69937	0.19462
13790.84180	0.19108
13786.98422	0.26560
13783.12664	0.29105
13779.26906	0.27419
13775.41148	0.27101
13771.55391	0.28388
13767.69633	0.30172
13763.83875	0.32661
13759.98117	0.33092
13756.12359	0.27040
13752.26602	0.22038
13748.40844	0.25707
13744.55086	0.32555
13740.69328	0.32801
13736.83570	0.33174
13732.97812	0.44188
13729.12055	0.44098
13725.26297	0.30270
13721.40539	0.27575
13717.54781	0.27415
13713.69023	0.26128
13709.83266	0.30418
13705.97508	0.34084
13702.11750	0.37424
13698.25992	0.34515
13694.40234	0.27234
13690.54477	0.27514
13686.68719	0.27017
13682.82961	0.24322
13678.97203	0.29882
13675.11445	0.35272
13671.25687	0.29271
13667.39930	0.25270
13663.54172	0.27271
13659.68414	0.27991
13655.82656	0.26825
13651.96898	0.24701
13648.11141	0.32561
13644.25383	0.41782
13640.39625	0.36755
13636.53867	0.30528
13632.68109	0.25791
13628.82352	0.24353
13624.96594	0.29201
13621.10836	0.26582
13617.25078	0.25449
13613.39320	0.28948
13609.53562	0.30799
13605.67805	0.35244
13601.82047	0.32277
13597.96289	0.27113
13594.10531	0.31260
13590.24773	0.33209
13586.39016	0.30100
13582.53258	0.25587
13578.67500	0.23250
13574.81742	0.28043
13570.95984	0.31356
13567.10227	0.32712
13563.24469	0.36030
13559.38711	0.38586
13555.52953	0.38582
13551.67195	0.27858
13547.81437	0.18355
13543.95680	0.24047
13540.09922	0.29490
13536.24164	0.27036
13532.38406	0.30843
13528.52648	0.35207
13524.66891	0.33983
13520.81133	0.31649
13516.95375	0.27874
13513.09617	0.27492
13509.23859	0.30494
13505.38102	0.28134
13501.52344	0.26893
13497.66586	0.30260
13493.80828	0.30598
13489.95070	0.33745
13486.09312	0.39465
13482.23555	0.35344
13478.37797	0.28412
13474.52039	0.27432
13470.66281	0.27856
13466.80523	0.28143
13462.94766	0.32645
13459.09008	0.32567
13455.23250	0.25096
13451.37492	0.22891
13447.51734	0.25427
13443.65977	0.27890
13439.80219	0.33643
13435.94461	0.36385
13432.08703	0.34312
13428.22945	0.31702
13424.37187	0.23481
13420.51430	0.18916
13416.65672	0.26315
13412.79914	0.29310
13408.94156	0.25884
13405.08398	0.30902
13401.22641	0.39981
13397.36883	0.39834
13393.51125	0.30687
13389.65367	0.25050
13385.79609	0.26240
13381.93852	0.28132
13378.08094	0.26851
13374.22336	0.24041
13370.36578	0.26628
13366.50820	0.35850
13362.65062	0.42004
13358.79305	0.36891
13354.93547	0.26281
13351.07789	0.24505
13347.22031	0.28436
13343.36273	0.33928
13339.50516	0.37531
13335.64758	0.29992
13331.79000	0.26500
13327.93242	0.33313
13324.07484	0.35527
13320.21727	0.34985
13316.35969	0.35471
13312.50211	0.33996
13308.64453	0.33284
13304.78695	0.37127
13300.92937	0.35965
13297.07180	0.28347
13293.21422	0.29563
13289.35664	0.35553
13285.49906	0.36328
13281.64148	0.36811
13277.78391	0.35088
13273.92633	0.32987
13270.06875	0.35693
13266.21117	0.36079
13262.35359	0.33150
13258.49602	0.30633
13254.63844	0.29247
13250.78086	0.32520
13246.92328	0.35020
13243.06570	0.31162
13239.20812	0.25939
13235.35055	0.23477
13231.49297	0.27236
13227.63539	0.29909
13223.77781	0.24364
13219.92023	0.23491
13216.06266	0.30333
13212.20508	0.34450
13208.34750	0.33064
13204.48992	0.30354
13200.63234	0.29191
13196.77477	0.28928
13192.91719	0.29753
13189.05961	0.30031
13185.20203	0.26964
13181.34445	0.27881
13177.48687	0.33698
13173.62930	0.34874
13169.77172	0.32633
13165.91414	0.26936
13162.05656	0.21904
13158.19898	0.24228
13154.34141	0.27055
13150.48383	0.27719
13146.62625	0.29653
13142.76867	0.26833
13138.91109	0.24067
13135.05352	0.27369
13131.19594	0.26530
13127.33836	0.23030
13123.48078	0.26562
13119.62320	0.31864
13115.76562	0.33764
13111.90805	0.33621
13108.05047	0.32784
13104.19289	0.29936
13100.33531	0.27012
13096.47773	0.24481
13092.62016	0.21959
13088.76258	0.25344
13084.90500	0.32387
13081.04742	0.35818
13077.18984	0.34168
13073.33227	0.29146
13069.47469	0.25128
13065.61711	0.23522
13061.75953	0.25537
13057.90195	0.28417
13054.04437	0.28076
13050.18680	0.28415
13046.32922	0.28195
13042.47164	0.27766
13038.61406	0.31086
13034.75648	0.34137
13030.89891	0.35012
13027.04133	0.32852
13023.18375	0.28853
13019.32617	0.27488
13015.46859	0.27377
13011.61102	0.28200
13007.75344	0.30970
13003.89586	0.33715
13000.03828	0.32525
12996.18070	0.28062
12992.32312	0.29634
12988.46555	0.33485
12984.60797	0.30577
12980.75039	0.26879
12976.89281	0.25950
12973.03523	0.26510
12969.17766	0.29803
12965.32008	0.30712
12961.46250	0.27980
12957.60492	0.26434
12953.74734	0.25920
12949.88977	0.24371
12946.03219	0.23155
12942.17461	0.23596
12938.31703	0.25938
12934.45945	0.26613
12930.60187	0.26358
12926.74430	0.30770
12922.88672	0.33696
12919.02914	0.31701
12915.17156	0.31500
12911.31398	0.32962
12907.45641	0.30645
12903.59883	0.23453
12899.74125	0.20652
12895.88367	0.25621
12892.02609	0.29891
12888.16852	0.30774
12884.31094	0.27869
12880.45336	0.26028
12876.59578	0.29217
12872.73820	0.30009
12868.88062	0.27341
12865.02305	0.27376
12861.16547	0.27605
12857.30789	0.27135
12853.45031	0.28715
12849.59273	0.29002
12845.73516	0.28537
12841.87758	0.28898
12838.02000	0.28470
12834.16242	0.30050
12830.30484	0.30201
12826.44727	0.25622
12822.58969	0.23304
12818.73211	0.25876
12814.87453	0.26972
12811.01695	0.24344
12807.15937	0.25941
12803.30180	0.29270
12799.44422	0.27554
12795.58664	0.26704
12791.72906	0.27896
12787.87148	0.30091
12784.01391	0.33684
12780.15633	0.35778
12776.29875	0.34514
12772.44117	0.32067
12768.58359	0.31625
12764.72602	0.30178
12760.86844	0.27622
12757.01086	0.27297
12753.15328	0.27453
12749.29570	0.28216
12745.43812	0.30053
12741.58055	0.32123
12737.72297	0.34264
12733.86539	0.32796
12730.00781	0.30489
12726.15023	0.30981
12722.29266	0.30077
12718.43508	0.28986
12714.57750	0.28871
12710.71992	0.28739
12706.86234	0.29890
12703.00477	0.28543
12699.14719	0.27063
12695.28961	0.28795
12691.43203	0.28149
12687.57445	0.27027
12683.71687	0.29970
12679.85930	0.31947
12676.00172	0.29885
12672.14414	0.27676
12668.28656	0.27358
12664.42898	0.25069
12660.57141	0.24486
12656.71383	0.28189
12652.85625	0.30029
12648.99867	0.29186
12645.14109	0.26746
12641.28352	0.26063
12637.42594	0.29613
12633.56836	0.31196
12629.71078	0.29650
12625.85320	0.30028
12621.99562	0.31263
12618.13805	0.30105
12614.28047	0.26639
12610.42289	0.25258
12606.56531	0.26949
12602.70773	0.27135
12598.85016	0.27627
12594.99258	0.29098
12591.13500	0.27946
12587.27742	0.29576
12583.41984	0.34729
12579.56227	0.33051
12575.70469	0.28450
12571.84711	0.26731
12567.98953	0.23449
12564.13195	0.24288
12560.27437	0.30276
12556.41680	0.31989
12552.55922	0.30532
12548.70164	0.27428
12544.84406	0.28029
12540.98648	0.31367
12537.12891	0.28680
12533.27133	0.28181
12529.41375	0.30896
12525.55617	0.30290
12521.69859	0.30301
12517.84102	0.29880
12513.98344	0.30127
12510.12586	0.33248
12506.26828	0.35503
12502.41070	0.32119
12498.55312	0.26465
12494.69555	0.28657
12490.83797	0.33295
12486.98039	0.32255
12483.12281	0.29516
12479.26523	0.28234
12475.40766	0.30344
12471.55008	0.31526
12467.69250	0.28260
12463.83492	0.27866
12459.97734	0.29600
12456.11977	0.27405
12452.26219	0.24803
12448.40461	0.28599
12444.54703	0.34980
12440.68945	0.33983
12436.83187	0.29777
12432.97430	0.30030
12429.11672	0.29732
12425.25914	0.27939
12421.40156	0.29613
12417.54398	0.30384
12413.68641	0.29182
12409.82883	0.30390
12405.97125	0.30795
12402.11367	0.28525
12398.25609	0.28819
12394.39852	0.30991
12390.54094	0.31635
12386.68336	0.32473
12382.82578	0.33034
12378.96820	0.32549
12375.11062	0.31436
12371.25305	0.28594
12367.39547	0.26713
12363.53789	0.26751
12359.68031	0.27175
12355.82273	0.29077
12351.96516	0.31238
12348.10758	0.28500
12344.25000	0.23513
12340.39242	0.23581
12336.53484	0.26273
12332.67727	0.28070
12328.81969	0.29492
12324.96211	0.29580
12321.10453	0.29761
12317.24695	0.30050
12313.38937	0.28760
12309.53180	0.27541
12305.67422	0.27716
12301.81664	0.27760
12297.95906	0.27284
12294.10148	0.28213
12290.24391	0.27566
12286.38633	0.27048
12282.52875	0.31212
12278.67117	0.31564
12274.81359	0.27721
12270.95602	0.27412
12267.09844	0.28829
12263.24086	0.29521
12259.38328	0.29378
12255.52570	0.28354
12251.66812	0.27518
12247.81055	0.28334
12243.95297	0.29730
12240.09539	0.27517
12236.23781	0.26169
12232.38023	0.30543
12228.52266	0.31614
12224.66508	0.26555
12220.80750	0.25683
12216.94992	0.28877
12213.09234	0.29127
12209.23477	0.28542
12205.37719	0.27479
12201.51961	0.25820
12197.66203	0.28001
12193.80445	0.30506
12189.94687	0.29007
12186.08930	0.29085
12182.23172	0.31348
12178.37414	0.30107
12174.51656	0.28025
12170.65898	0.29385
12166.80141	0.29380
12162.94383	0.29006
12159.08625	0.32991
12155.22867	0.34062
12151.37109	0.30379
12147.51352	0.28887
12143.65594	0.28242
12139.79836	0.27174
12135.94078	0.28285
12132.08320	0.30434
12128.22562	0.30631
12124.36805	0.29269
12120.51047	0.28136
12116.65289	0.26364
12112.79531	0.26328
12108.93773	0.30088
12105.08016	0.30820
12101.22258	0.28509
12097.36500	0.28327
12093.50742	0.27129
12089.64984	0.27038
12085.79227	0.30120
12081.93469	0.30896
12078.07711	0.29374
12074.21953	0.28527
12070.36195	0.28762
12066.50437	0.28408
12062.64680	0.26710
12058.78922	0.26483
12054.93164	0.26791
12051.07406	0.24597
12047.21648	0.23660
12043.35891	0.26214
12039.50133	0.29790
12035.64375	0.31953
12031.78617	0.29439
12027.92859	0.24809
12024.07102	0.25387
12020.21344	0.29289
12016.35586	0.30268
12012.49828	0.29637
12008.64070	0.30809
12004.78312	0.31596
12000.92555	0.29435
11997.06797	0.27076
11993.21039	0.26771
11989.35281	0.27480
11985.49523	0.28120
11981.63766	0.28180
11977.78008	0.27140
11973.92250	0.26543
11970.06492	0.27500
11966.20734	0.27930
11962.34977	0.27005
11958.49219	0.25188
11954.63461	0.24405
11950.77703	0.27369
11946.91945	0.30701
11943.06187	0.30568
11939.20430	0.29778
11935.34672	0.30307
11931.48914	0.28439
11927.63156	0.24868
11923.77398	0.24478
11919.91641	0.26656
11916.05883	0.28516
11912.20125	0.28710
11908.34367	0.27605
11904.48609	0.26309
11900.62852	0.26070
11896.77094	0.27456
11892.91336	0.28734
11889.05578	0.29624
11885.19820	0.30635
11881.34062	0.29570
11877.48305	0.26713
11873.62547	0.24983
11869.76789	0.25235
11865.91031	0.27218
11862.05273	0.29102
11858.19516	0.30783
11854.33758	0.32199
11850.48000	0.29780
11846.62242	0.26657
11842.76484	0.26412
11838.90727	0.27223
11835.04969	0.29091
11831.19211	0.29112
11827.33453	0.27396
11823.47695	0.27299
11819.61937	0.26811
11815.76180	0.27285
11811.90422	0.28893
11808.04664	0.28547
11804.18906	0.27747
11800.33148	0.27697
11796.47391	0.28071
11792.61633	0.28173
11788.75875	0.28422
11784.90117	0.29282
11781.04359	0.29802
11777.18602	0.29359
11773.32844	0.29222
11769.47086	0.31346
11765.61328	0.30315
11761.75570	0.26472
11757.89812	0.26943
11754.04055	0.26998
11750.18297	0.26042
11746.32539	0.28123
11742.46781	0.29515
11738.61023	0.29685
11734.75266	0.29176
11730.89508	0.27882
11727.03750	0.28200
11723.17992	0.28994
11719.32234	0.28391
11715.46477	0.28199
11711.60719	0.29986
11707.74961	0.30263
11703.89203	0.27166
11700.03445	0.25732
11696.17687	0.28448
11692.31930	0.30016
11688.46172	0.26802
11684.60414	0.24192
11680.74656	0.26298
11676.88898	0.28707
11673.03141	0.27755
11669.17383	0.25184
11665.31625	0.25331
11661.45867	0.26878
11657.60109	0.26468
11653.74352	0.26391
11649.88594	0.26535
11646.02836	0.26704
11642.17078	0.27741
11638.31320	0.28075
11634.45562	0.29420
11630.59805	0.30141
11626.74047	0.27781
11622.88289	0.25930
11619.02531	0.25919
11615.16773	0.27506
11611.31016	0.28955
11607.45258	0.27798
11603.59500	0.27835
11599.73742	0.30008
11595.87984	0.30217
11592.02227	0.29020
11588.16469	0.28281
11584.30711	0.28326
11580.44953	0.28053
11576.59195	0.26095
11572.73437	0.26355
11568.87680	0.28693
11565.01922	0.27087
11561.16164	0.25937
11557.30406	0.29019
11553.44648	0.28239
11549.58891	0.24890
11545.73133	0.26589
11541.87375	0.28321
11538.01617	0.28010
11534.15859	0.28129
11530.30102	0.27498
11526.44344	0.28336
11522.58586	0.27935
11518.72828	0.25622
11514.87070	0.26686
11511.01312	0.27681
11507.15555	0.26004
11503.29797	0.25040
11499.44039	0.25763
11495.58281	0.27205
11491.72523	0.27984
11487.86766	0.27853
11484.01008	0.27763
11480.15250	0.28178
11476.29492	0.28395
11472.43734	0.27962
11468.57977	0.28164
11464.72219	0.28289
11460.86461	0.26476
11457.00703	0.26721
11453.14945	0.29192
11449.29187	0.27378
11445.43430	0.25458
11441.57672	0.26661
11437.71914	0.27514
11433.86156	0.28197
11430.00398	0.27542
11426.14641	0.26709
11422.28883	0.26958
11418.43125	0.26694
11414.57367	0.27574
11410.71609	0.28139
11406.85852	0.26874
11403.00094	0.25623
11399.14336	0.25814
11395.28578	0.28380
11391.42820	0.29884
11387.57062	0.28830
11383.71305	0.28404
11379.85547	0.28803
11375.99789	0.29248
11372.14031	0.28940
11368.28273	0.27989
11364.42516	0.27566
11360.56758	0.27509
11356.71000	0.27960
11352.85242	0.27544
11348.99484	0.25859
11345.13727	0.25981
11341.27969	0.28460
11337.42211	0.30079
11333.56453	0.29053
11329.70695	0.28087
11325.84937	0.28049
11321.99180	0.28062
11318.13422	0.28682
11314.27664	0.28700
11310.41906	0.28388
11306.56148	0.28638
11302.70391	0.28355
11298.84633	0.27647
11294.98875	0.27517
11291.13117	0.27550
11287.27359	0.26667
11283.41602	0.26206
11279.55844	0.25742
11275.70086	0.24209
11271.84328	0.25466
11267.98570	0.28524
11264.12812	0.28608
11260.27055	0.27342
11256.41297	0.27910
11252.55539	0.28681
11248.69781	0.27355
11244.84023	0.26689
11240.98266	0.28448
11237.12508	0.29025
11233.26750	0.26996
11229.40992	0.25113
11225.55234	0.25476
11221.69477	0.27338
11217.83719	0.28744
11213.97961	0.28136
11210.12203	0.26573
11206.26445	0.27434
11202.40687	0.28592
11198.54930	0.27526
11194.69172	0.27888
11190.83414	0.29237
11186.97656	0.28610
11183.11898	0.27441
11179.26141	0.27535
11175.40383	0.28948
11171.54625	0.29840
11167.68867	0.29412
11163.83109	0.29201
11159.97352	0.29519
11156.11594	0.29898
11152.25836	0.31035
11148.40078	0.31294
11144.54320	0.28712
11140.68562	0.27577
11136.82805	0.29343
11132.97047	0.30755
11129.11289	0.31220
11125.25531	0.30971
11121.39773	0.30677
11117.54016	0.30681
11113.68258	0.32008
11109.82500	0.33345
11105.96742	0.32679
11102.10984	0.33027
11098.25227	0.33225
11094.39469	0.32520
11090.53711	0.33270
11086.67953	0.33277
11082.82195	0.32905
11078.96437	0.33844
11075.10680	0.34965
11071.24922	0.35298
11067.39164	0.35010
11063.53406	0.34474
11059.67648	0.33204
11055.81891	0.32579
11051.96133	0.33406
11048.10375	0.34437
11044.24617	0.34665
11040.38859	0.34014
11036.53102	0.33695
11032.67344	0.34943
11028.81586	0.36869
11024.95828	0.35886
11021.10070	0.33929
11017.24312	0.34939
11013.38555	0.35153
11009.52797	0.34590
11005.67039	0.35384
11001.81281	0.34669
10997.95523	0.33639
10994.09766	0.33923
10990.24008	0.34347
10986.38250	0.34791
10982.52492	0.35131
10978.66734	0.36094
10974.80977	0.36786
10970.95219	0.35279
10967.09461	0.33158
10963.23703	0.32509
10959.37945	0.33431
10955.52187	0.34166
10951.66430	0.34302
10947.80672	0.35753
10943.94914	0.36808
10940.09156	0.36110
10936.23398	0.35509
10932.37641	0.34747
10928.51883	0.33985
10924.66125	0.34179
10920.80367	0.35363
10916.94609	0.36557
10913.08852	0.36711
10909.23094	0.36188
10905.37336	0.34921
10901.51578	0.34460
10897.65820	0.35350
10893.80062	0.35677
10889.94305	0.35944
10886.08547	0.36011
10882.22789	0.35406
10878.37031	0.35185
10874.51273	0.35478
10870.65516	0.35883
10866.79758	0.35447
10862.94000	0.34868
10859.08242	0.35813
10855.22484	0.37059
10851.36727	0.37206
10847.50969	0.36941
10843.65211	0.36446
10839.79453	0.35790
10835.93695	0.35722
10832.07937	0.36050
10828.22180	0.36839
10824.36422	0.37259
10820.50664	0.35790
10816.64906	0.34437
10812.79148	0.34707
10808.93391	0.35563
10805.07633	0.36540
10801.21875	0.36988
10797.36117	0.36686
10793.50359	0.36461
10789.64602	0.36475
10785.78844	0.35825
10781.93086	0.34693
10778.07328	0.34838
10774.21570	0.35762
10770.35812	0.35933
10766.50055	0.36414
10762.64297	0.36598
10758.78539	0.35108
10754.92781	0.34888
10751.07023	0.36007
10747.21266	0.35325
10743.35508	0.34781
10739.49750	0.35738
10735.63992	0.35927
10731.78234	0.36123
10727.92477	0.36956
10724.06719	0.36450
10720.20961	0.35393
10716.35203	0.34944
10712.49445	0.34175
10708.63687	0.34373
10704.77930	0.35563
10700.92172	0.35218
10697.06414	0.34474
10693.20656	0.35115
10689.34898	0.35475
10685.49141	0.34487
10681.63383	0.33682
10677.77625	0.34217
10673.91867	0.35392
10670.06109	0.35940
10666.20352	0.35263
10662.34594	0.34894
10658.48836	0.35655
10654.63078	0.36028
10650.77320	0.36120
10646.91562	0.36098
10643.05805	0.35092
10639.20047	0.34442
10635.34289	0.34849
10631.48531	0.35530
10627.62773	0.36839
10623.77016	0.37570
10619.91258	0.36079
10616.05500	0.34880
10612.19742	0.35556
10608.33984	0.36106
10604.48227	0.35992
10600.62469	0.36251
10596.76711	0.36604
10592.90953	0.36876
10589.05195	0.36589
10585.19437	0.35209
10581.33680	0.34633
10577.47922	0.35348
10573.62164	0.35249
10569.76406	0.35032
10565.90648	0.36220
10562.04891	0.37054
10558.19133	0.35989
10554.33375	0.35426
10550.47617	0.36575
10546.61859	0.36837
10542.76102	0.36417
10538.90344	0.36357
10535.04586	0.36178
10531.18828	0.36686
10527.33070	0.36632
10523.47312	0.35975
10519.61555	0.36310
10515.75797	0.36055
10511.90039	0.35762
10508.04281	0.36891
10504.18523	0.37337
10500.32766	0.36670
10496.47008	0.37021
10492.61250	0.37809
10488.75492	0.37270
10484.89734	0.37022
10481.03977	0.37025
10477.18219	0.36057
10473.32461	0.36415
10469.46703	0.37215
10465.60945	0.36663
10461.75187	0.36714
10457.89430	0.36946
10454.03672	0.36589
10450.17914	0.36684
10446.32156	0.36554
10442.46398	0.36182
10438.60641	0.36906
10434.74883	0.37764
10430.89125	0.37494
10427.03367	0.37236
10423.17609	0.37189
10419.31852	0.37093
10415.46094	0.37014
10411.60336	0.36306
10407.74578	0.35790
10403.88820	0.35877
10400.03062	0.36179
10396.17305	0.36755
10392.31547	0.36440
10388.45789	0.35489
10384.60031	0.35544
10380.74273	0.36225
10376.88516	0.36789
10373.02758	0.36812
10369.17000	0.35924
10365.31242	0.35952
10361.45484	0.37334
10357.59727	0.37340
10353.73969	0.36587
10349.88211	0.36800
10346.02453	0.36926
10342.16695	0.36759
10338.30937	0.36529
10334.45180	0.36077
10330.59422	0.35832
10326.73664	0.35901
10322.87906	0.36453
10319.02148	0.36974
10315.16391	0.36683
10311.30633	0.36026
10307.44875	0.35594
10303.59117	0.36267
10299.73359	0.37499
10295.87602	0.37482
10292.01844	0.37385
10288.16086	0.37494
10284.30328	0.37044
10280.44570	0.37562
10276.58812	0.37849
10272.73055	0.36723
10268.87297	0.36369
10265.01539	0.37249
10261.15781	0.37802
10257.30023	0.37420
10253.44266	0.36911
10249.58508	0.36924
10245.72750	0.37391
10241.86992	0.37283
10238.01234	0.36327
10234.15477	0.36773
10230.29719	0.37912
10226.43961	0.37087
10222.58203	0.36203
10218.72445	0.37132
10214.86687	0.38169
10211.00930	0.38038
10207.15172	0.37887
10203.29414	0.39110
10199.43656	0.39699
10195.57898	0.38241
10191.72141	0.37645
10187.86383	0.38199
10184.00625	0.37956
10180.14867	0.37708
10176.29109	0.37928
10172.43352	0.37842
10168.57594	0.37948
10164.71836	0.39119
10160.86078	0.39579
10157.00320	0.38122
10153.14562	0.37336
10149.28805	0.37751
10145.43047	0.37984
10141.57289	0.38293
10137.71531	0.38281
10133.85773	0.37832
10130.00016	0.37921
10126.14258	0.38301
10122.28500	0.38237
10118.42742	0.37899
10114.56984	0.37766
10110.71227	0.37983
10106.85469	0.37779
10102.99711	0.37121
10099.13953	0.37256
10095.28195	0.38006
10091.42437	0.38676
10087.56680	0.38799
10083.70922	0.38039
10079.85164	0.37800
10075.99406	0.38280
10072.13648	0.38112
10068.27891	0.38015
10064.42133	0.38416
10060.56375	0.38834
10056.70617	0.39298
10052.84859	0.38672
10048.99102	0.37813
10045.13344	0.38334
10041.27586	0.38292
10037.41828	0.37746
10033.56070	0.38152
10029.70312	0.38760
10025.84555	0.39551
10021.98797	0.39317
10018.13039	0.37934
10014.27281	0.38073
10010.41523	0.39154
10006.55766	0.39357
10002.70008	0.38885
9998.84250	0.38020
9994.98492	0.37447
9991.12734	0.37904
9987.26977	0.38457
9983.41219	0.38059
9979.55461	0.37812
9975.69703	0.38693
9971.83945	0.39249
9967.98187	0.38570
9964.12430	0.37854
9960.26672	0.37773
9956.40914	0.37908
9952.55156	0.38081
9948.69398	0.38680
9944.83641	0.39406
9940.97883	0.39295
9937.12125	0.39001
9933.26367	0.39259
9929.40609	0.39376
9925.54852	0.39253
9921.69094	0.38563
9917.83336	0.37485
9913.97578	0.37411
9910.11820	0.38225
9906.26062	0.38820
9902.40305	0.38694
9898.54547	0.38700
9894.68789	0.39201
9890.83031	0.38728
9886.97273	0.37966
9883.11516	0.38127
9879.25758	0.38185
9875.40000	0.38302
9871.54242	0.38815
9867.68484	0.38847
9863.82727	0.38813
9859.96969	0.38860
9856.11211	0.38469
9852.25453	0.38573
9848.39695	0.38942
9844.53937	0.38519
9840.68180	0.38180
9836.82422	0.38105
9832.96664	0.37760
9829.10906	0.37627
9825.25148	0.37695
9821.39391	0.37792
9817.53633	0.37877
9813.67875	0.37681
9809.82117	0.37876
9805.96359	0.38944
9802.10602	0.39596
9798.24844	0.39163
9794.39086	0.38535
9790.53328	0.38048
9786.67570	0.37909
9782.81812	0.38008
9778.96055	0.37855
9775.10297	0.37943
9771.24539	0.38451
9767.38781	0.38781
9763.53023	0.38755
9759.67266	0.38578
9755.81508	0.38181
9751.95750	0.37954
9748.09992	0.38914
9744.24234	0.39672
9740.38477	0.38950
9736.52719	0.38576
9732.66961	0.38875
9728.81203	0.39015
9724.95445	0.39037
9721.09687	0.39101
9717.23930	0.39414
9713.38172	0.39090
9709.52414	0.38373
9705.66656	0.38183
9701.80898	0.37962
9697.95141	0.38153
9694.09383	0.38845
9690.23625	0.39011
9686.37867	0.38871
9682.52109	0.39119
9678.66352	0.39496
9674.80594	0.39481
9670.94836	0.39139
9667.09078	0.38457
9663.23320	0.37993
9659.37562	0.38204
9655.51805	0.38414
9651.66047	0.38478
9647.80289	0.38576
9643.94531	0.38777
9640.08773	0.38944
9636.23016	0.38990
9632.37258	0.38672
9628.51500	0.37578
9624.65742	0.37295
9620.79984	0.38606
9616.94227	0.39647
9613.08469	0.39316
9609.22711	0.38434
9605.36953	0.38160
9601.51195	0.38231
9597.65437	0.38635
9593.79680	0.39198
9589.93922	0.38893
9586.08164	0.38471
9582.22406	0.38513
9578.36648	0.38615
9574.50891	0.38503
9570.65133	0.38310
9566.79375	0.39064
9562.93617	0.39823
9559.07859	0.39247
9555.22102	0.38788
9551.36344	0.39212
9547.50586	0.39490
9543.64828	0.39594
9539.79070	0.39789
9535.93312	0.39535
9532.07555	0.39294
9528.21797	0.39474
9524.36039	0.39489
9520.50281	0.39542
9516.64523	0.39705
9512.78766	0.39460
9508.93008	0.39015
9505.07250	0.39001
9501.21492	0.39363
9497.35734	0.39650
9493.49977	0.39939
9489.64219	0.40091
9485.78461	0.39658
9481.92703	0.39137
9478.06945	0.39354
9474.21187	0.39571
9470.35430	0.39356
9466.49672	0.39659
9462.63914	0.39734
9458.78156	0.39338
9454.92398	0.39436
9451.06641	0.39212
9447.20883	0.38973
9443.35125	0.39333
9439.49367	0.39389
9435.63609	0.39602
9431.77852	0.40019
9427.92094	0.39667
9424.06336	0.39104
9420.20578	0.38921
9416.34820	0.39001
9412.49062	0.39405
9408.63305	0.39798
9404.77547	0.39741
9400.91789	0.39191
9397.06031	0.38661
9393.20273	0.38627
9389.34516	0.38582
9385.48758	0.38631
9381.63000	0.39000
9377.77242	0.38961
9373.91484	0.38875
9370.05727	0.39015
9366.19969	0.38776
9362.34211	0.38464
9358.48453	0.38561
9354.62695	0.38740
9350.76937	0.38440
9346.91180	0.38160
9343.05422	0.38509
9339.19664	0.38703
9335.33906	0.38812
9331.48148	0.39483
9327.62391	0.39687
9323.76633	0.39201
9319.90875	0.39101
9316.05117	0.39107
9312.19359	0.38849
9308.33602	0.38823
9304.47844	0.39031
9300.62086	0.39256
9296.76328	0.39309
9292.90570	0.39188
9289.04812	0.39132
9285.19055	0.39019
9281.33297	0.39048
9277.47539	0.39255
9273.61781	0.39016
9269.76023	0.38668
9265.90266	0.38754
9262.04508	0.39037
9258.18750	0.39323
9254.32992	0.39382
9250.47234	0.39306
9246.61477	0.39395
9242.75719	0.39412
9238.89961	0.39213
9235.04203	0.39105
9231.18445	0.39147
9227.32687	0.38993
9223.46930	0.38991
9219.61172	0.39340
9215.75414	0.39186
9211.89656	0.38632
9208.03898	0.38596
9204.18141	0.38921
9200.32383	0.39005
9196.46625	0.39095
9192.60867	0.39276
9188.75109	0.39189
9184.89352	0.39232
9181.03594	0.39274
9177.17836	0.39081
9173.32078	0.39206
9169.46320	0.39420
9165.60562	0.39410
9161.74805	0.39287
9157.89047	0.39258
9154.03289	0.39447
9150.17531	0.39462
9146.31773	0.39412
9142.46016	0.39367
9138.60258	0.39061
9134.74500	0.38988
9130.88742	0.39256
9127.02984	0.39297
9123.17227	0.39090
9119.31469	0.39011
9115.45711	0.39203
9111.59953	0.39403
9107.74195	0.39423
9103.88437	0.39393
9100.02680	0.39227
9096.16922	0.38866
9092.31164	0.38636
9088.45406	0.38887
9084.59648	0.39443
9080.73891	0.39627
9076.88133	0.39314
9073.02375	0.39007
9069.16617	0.39030
9065.30859	0.39143
9061.45102	0.39036
9057.59344	0.38808
9053.73586	0.38522
9049.87828	0.38483
9046.02070	0.38793
9042.16312	0.39110
9038.30555	0.39375
9034.44797	0.39201
9030.59039	0.38890
9026.73281	0.39063
9022.87523	0.38817
9019.01766	0.38298
9015.16008	0.38558
9011.30250	0.38921
9007.44492	0.38934
9003.58734	0.39066
8999.72977	0.39274
8995.87219	0.39407
8992.01461	0.39312
8988.15703	0.39039
8984.29945	0.38929
8980.44187	0.38836
8976.58430	0.38784
8972.72672	0.39104
8968.86914	0.39363
8965.01156	0.39196
8961.15398	0.39073
8957.29641	0.39161
8953.43883	0.39137
8949.58125	0.39001
8945.72367	0.38934
8941.86609	0.39005
8938.00852	0.39152
8934.15094	0.39279
8930.29336	0.39253
8926.43578	0.39019
8922.57820	0.39019
8918.72062	0.39373
8914.86305	0.39541
8911.00547	0.39248
8907.14789	0.38736
8903.29031	0.38708
8899.43273	0.39291
8895.57516	0.39603
8891.71758	0.39424
8887.86000	0.39205
8884.00242	0.39021
8880.14484	0.39060
8876.28727	0.39173
8872.42969	0.39039
8868.57211	0.39175
8864.71453	0.39450
8860.85695	0.39352
8856.99937	0.39265
8853.14180	0.39188
8849.28422	0.38884
8845.42664	0.38530
8841.56906	0.38516
8837.71148	0.38876
8833.85391	0.39037
8829.99633	0.38958
8826.13875	0.38757
8822.28117	0.38492
8818.42359	0.38577
8814.56602	0.38816
8810.70844	0.38912
8806.85086	0.39059
8802.99328	0.39137
8799.13570	0.38971
8795.27812	0.38822
8791.42055	0.38727
8787.56297	0.38489
8783.70539	0.38483
8779.84781	0.38813
8775.99023	0.38907
8772.13266	0.38822
8768.27508	0.38824
8764.41750	0.38747
8760.55992	0.38746
8756.70234	0.38848
8752.84477	0.38628
8748.98719	0.38295
8745.12961	0.38346
8741.27203	0.38594
8737.41445	0.38607
8733.55687	0.38456
8729.69930	0.38564
8725.84172	0.38747
8721.98414	0.38660
8718.12656	0.38548
8714.26898	0.38433
8710.41141	0.38546
8706.55383	0.39013
8702.69625	0.39119
8698.83867	0.38874
8694.98109	0.38712
8691.12352	0.38657
8687.26594	0.38632
8683.40836	0.38491
8679.55078	0.38541
8675.69320	0.38704
8671.83562	0.38615
8667.97805	0.38682
8664.12047	0.38928
8660.26289	0.38886
8656.40531	0.38712
8652.54773	0.38782
8648.69016	0.38863
8644.83258	0.38714
8640.97500	0.38635
8637.11742	0.38711
8633.25984	0.38740
8629.40227	0.38701
8625.54469	0.38726
8621.68711	0.38691
8617.82953	0.38535
8613.97195	0.38553
8610.11437	0.38645
8606.25680	0.38549
8602.39922	0.38274
8598.54164	0.38031
8594.68406	0.38084
8590.82648	0.38207
8586.96891	0.38322
8583.11133	0.38536
8579.25375	0.38467
8575.39617	0.38293
8571.53859	0.38435
8567.68102	0.38365
8563.82344	0.38062
8559.96586	0.38101
8556.10828	0.38200
8552.25070	0.38187
8548.39312	0.38376
8544.53555	0.38618
8540.67797	0.38606
8536.82039	0.38467
8532.96281	0.38328
8529.10523	0.38134
8525.24766	0.38091
8521.39008	0.38183
8517.53250	0.38182
8513.67492	0.38054
8509.81734	0.38023
8505.95977	0.38359
8502.10219	0.38473
8498.24461	0.38184
8494.38703	0.38026
8490.52945	0.37960
8486.67187	0.38201
8482.81430	0.38538
8478.95672	0.38399
8475.09914	0.38261
8471.24156	0.38218
8467.38398	0.38087
8463.52641	0.38120
8459.66883	0.38035
8455.81125	0.37904
8451.95367	0.38222
8448.09609	0.38528
8444.23852	0.38352
8440.38094	0.38095
8436.52336	0.38083
8432.66578	0.38128
8428.80820	0.38181
8424.95062	0.38306
8421.09305	0.38221
8417.23547	0.37963
8413.37789	0.37772
8409.52031	0.37713
8405.66273	0.37963
8401.80516	0.38135
8397.94758	0.38031
8394.09000	0.38067
8390.23242	0.37992
8386.37484	0.37798
8382.51727	0.37977
8378.65969	0.38174
8374.80211	0.38033
8370.94453	0.37908
8367.08695	0.37955
8363.22937	0.38042
8359.37180	0.38094
8355.51422	0.37992
8351.65664	0.37736
8347.79906	0.37599
8343.94148	0.37704
8340.08391	0.37852
8336.22633	0.37932
8332.36875	0.37904
8328.51117	0.37785
8324.65359	0.37754
8320.79602	0.37740
8316.93844	0.37686
8313.08086	0.37654
8309.22328	0.37632
8305.36570	0.37857
8301.50812	0.38062
8297.65055	0.37871
8293.79297	0.37687
8289.93539	0.37519
8286.07781	0.37330
8282.22023	0.37458
8278.36266	0.37599
8274.50508	0.37518
8270.64750	0.37485
8266.78992	0.37643
8262.93234	0.37781
8259.07477	0.37663
8255.21719	0.37629
8251.35961	0.37848
8247.50203	0.37956
8243.64445	0.37932
8239.78687	0.37775
8235.92930	0.37553
8232.07172	0.37701
8228.21414	0.37924
8224.35656	0.37726
8220.49898	0.37615
8216.64141	0.37754
8212.78383	0.37677
8208.92625	0.37607
8205.06867	0.37779
8201.21109	0.37833
8197.35352	0.37691
8193.49594	0.37642
8189.63836	0.37682
8185.78078	0.37617
8181.92320	0.37442
8178.06562	0.37391
8174.20805	0.37627
8170.35047	0.37743
8166.49289	0.37669
8162.63531	0.37836
8158.77773	0.37930
8154.92016	0.37757
8151.06258	0.37637
8147.20500	0.37496
8143.34742	0.37427
8139.48984	0.37627
8135.63227	0.37800
8131.77469	0.37760
8127.91711	0.37695
8124.05953	0.37688
8120.20195	0.37674
8116.34437	0.37644
8112.48680	0.37596
8108.62922	0.37612
8104.77164	0.37672
8100.91406	0.37683
8097.05648	0.37699
8093.19891	0.37627
8089.34133	0.37482
8085.48375	0.37435
8081.62617	0.37434
8077.76859	0.37417
8073.91102	0.37395
8070.05344	0.37444
8066.19586	0.37470
8062.33828	0.37411
8058.48070	0.37567
8054.62312	0.37661
8050.76555	0.37421
8046.90797	0.37407
8043.05039	0.37523
8039.19281	0.37459
8035.33523	0.37496
8031.47766	0.37502
8027.62008	0.37390
8023.76250	0.37415
8019.90492	0.37527
8016.04734	0.37560
8012.18977	0.37481
8008.33219	0.37397
8004.47461	0.37326
8000.61703	0.37339
7996.75945	0.37553
7992.90187	0.37709
7989.04430	0.37668
7985.18672	0.37628
7981.32914	0.37578
7977.47156	0.37438
7973.61398	0.37334
7969.75641	0.37258
7965.89883	0.37173
7962.04125	0.37230
7958.18367	0.37298
7954.32609	0.37243
7950.46852	0.37250
7946.61094	0.37384
7942.75336	0.37532
7938.89578	0.37495
7935.03820	0.37398
7931.18062	0.37418
7927.32305	0.37350
7923.46547	0.37272
7919.60789	0.37312
7915.75031	0.37334
7911.89273	0.37334
7908.03516	0.37286
7904.17758	0.37267
7900.32000	0.37402
7896.46242	0.37425
7892.60484	0.37244
7888.74727	0.37266
7884.88969	0.37487
7881.03211	0.37491
7877.17453	0.37326
7873.31695	0.37316
7869.45937	0.37379
7865.60180	0.37285
7861.74422	0.37144
7857.88664	0.37080
7854.02906	0.37104
7850.17148	0.37252
7846.31391	0.37359
7842.45633	0.37350
7838.59875	0.37262
7834.74117	0.37118
7830.88359	0.37231
7827.02602	0.37422
7823.16844	0.37220
7819.31086	0.37094
7815.45328	0.37280
7811.59570	0.37333
7807.73812	0.37307
7803.88055	0.37331
7800.02297	0.37336
7796.16539	0.37307
7792.30781	0.37247
7788.45023	0.37284
7784.59266	0.37340
7780.73508	0.37301
7776.87750	0.37248
7773.01992	0.37201
7769.16234	0.37249
7765.30477	0.37363
7761.44719	0.37381
7757.58961	0.37308
7753.73203	0.37183
7749.87445	0.37122
7746.01687	0.37133
7742.15930	0.37119
7738.30172	0.37157
7734.44414	0.37208
7730.58656	0.37206
7726.72898	0.37189
7722.87141	0.37211
7719.01383	0.37267
7715.15625	0.37249
7711.29867	0.37250
7707.44109	0.37262
7703.58352	0.37194
7699.72594	0.37222
7695.86836	0.37309
7692.01078	0.37314
7688.15320	0.37183
7684.29562	0.37015
7680.43805	0.37043
7676.58047	0.37110
7672.72289	0.37078
7668.86531	0.37028
7665.00773	0.37025
7661.15016	0.37191
7657.29258	0.37373
7653.43500	0.37365
7649.57742	0.37225
7645.71984	0.37083
7641.86227	0.37054
7638.00469	0.37125
7634.14711	0.37171
7630.28953	0.37051
7626.43195	0.36916
7622.57437	0.36996
7618.71680	0.37084
7614.85922	0.37111
7611.00164	0.37212
7607.14406	0.37247
7603.28648	0.37221
7599.42891	0.37205
7595.57133	0.37149
7591.71375	0.37109
7587.85617	0.37091
7583.99859	0.37107
7580.14102	0.37170
7576.28344	0.37208
7572.42586	0.37218
7568.56828	0.37276
7564.71070	0.37418
7560.85312	0.37505
7556.99555	0.37425
7553.13797	0.37236
7549.28039	0.37092
7545.42281	0.37140
7541.56523	0.37158
7537.70766	0.37073
7533.85008	0.37122
7529.99250	0.37154
7526.13492	0.37133
7522.27734	0.37178
7518.41977	0.37189
7514.56219	0.37190
7510.70461	0.37175
7506.84703	0.37160
7502.98945	0.37223
7499.13187	0.37269
7495.27430	0.37286
7491.41672	0.37252
7487.55914	0.37209
7483.70156	0.37297
7479.84398	0.37360
7475.98641	0.37347
7472.12883	0.37369
7468.27125	0.37303
7464.41367	0.37185
7460.55609	0.37190
7456.69852	0.37230
7452.84094	0.37231
7448.98336	0.37258
7445.12578	0.37281
7441.26820	0.37290
7437.41062	0.37250
7433.55305	0.37130
7429.69547	0.37090
7425.83789	0.37199
7421.98031	0.37310
7418.12273	0.37294
7414.26516	0.37198
7410.40758	0.37144
7406.55000	0.37207
7402.69242	0.37376
7398.83484	0.37348
7394.97727	0.37169
7391.11969	0.37228
7387.26211	0.37329
7383.40453	0.37274
7379.54695	0.37231
7375.68937	0.37215
7371.83180	0.37185
7367.97422	0.37246
7364.11664	0.37383
7360.25906	0.37352
7356.40148	0.37175
7352.54391	0.37172
7348.68633	0.37327
7344.82875	0.37386
7340.97117	0.37417
7337.11359	0.37447
7333.25602	0.37257
7329.39844	0.37142
7325.54086	0.37369
7321.68328	0.37439
7317.82570	0.37280
7313.96812	0.37210
7310.11055	0.37265
7306.25297	0.37210
7302.39539	0.37178
7298.53781	0.37336
7294.68023	0.37402
7290.82266	0.37320
7286.96508	0.37300
7283.10750	0.37351
7279.24992	0.37367
7275.39234	0.37372
7271.53477	0.37435
7267.67719	0.37439
7263.81961	0.37493
7259.96203	0.37528
7256.10445	0.37381
7252.24687	0.37348
7248.38930	0.37315
7244.53172	0.37285
7240.67414	0.37434
7236.81656	0.37334
7232.95898	0.37272
7229.10141	0.37492
7225.24383	0.37527
7221.38625	0.37489
7217.52867	0.37443
7213.67109	0.37422
7209.81352	0.37440
7205.95594	0.37362
7202.09836	0.37415
7198.24078	0.37538
7194.38320	0.37553
7190.52562	0.37554
7186.66805	0.37475
7182.81047	0.37511
7178.95289	0.37634
7175.09531	0.37472
7171.23773	0.37411
7167.38016	0.37585
7163.52258	0.37615
7159.66500	0.37696
7155.80742	0.37757
7151.94984	0.37654
7148.09227	0.37650
7144.23469	0.37651
7140.37711	0.37613
7136.51953	0.37664
7132.66195	0.37608
7128.80437	0.37563
7124.94680	0.37629
7121.08922	0.37669
7117.23164	0.37776
7113.37406	0.37796
7109.51648	0.37672
7105.65891	0.37666
7101.80133	0.37644
7097.94375	0.37590
7094.08617	0.37706
7090.22859	0.37807
7086.37102	0.37866
7082.51344	0.37877
7078.65586	0.37713
7074.79828	0.37589
7070.94070	0.37619
7067.08312	0.37643
7063.22555	0.37647
7059.36797	0.37662
7055.51039	0.37663
7051.65281	0.37687
7047.79523	0.37749
7043.93766	0.37782
7040.08008	0.37735
7036.22250	0.37682
7032.36492	0.37738
7028.50734	0.37825
7024.64977	0.37840
7020.79219	0.37834
7016.93461	0.37839
7013.07703	0.37849
7009.21945	0.37861
7005.36187	0.37845
7001.50430	0.37779
6997.64672	0.37766
6993.78914	0.37840
6989.93156	0.37846
6986.07398	0.37805
6982.21641	0.37847
6978.35883	0.37888
6974.50125	0.37870
6970.64367	0.37928
6966.78609	0.38017
6962.92852	0.37978
6959.07094	0.37909
6955.21336	0.37887
6951.35578	0.37855
6947.49820	0.37826
6943.64062	0.37892
6939.78305	0.38034
6935.92547	0.38072
6932.06789	0.38077
6928.21031	0.38128
6924.35273	0.38166
6920.49516	0.38252
6916.63758	0.38244
6912.78000	0.38158
6908.92242	0.38178
6905.06484	0.38193
6901.20727	0.38188
6897.34969	0.38182
6893.49211	0.38152
6889.63453	0.38155
6885.77695	0.38157
6881.91937	0.38150
6878.06180	0.38158
6874.20422	0.38157
6870.34664	0.38178
6866.48906	0.38255
6862.63148	0.38323
6858.77391	0.38345
6854.91633	0.38400
6851.05875	0.38444
6847.20117	0.38352
6843.34359	0.38269
6839.48602	0.38310
6835.62844	0.38317
6831.77086	0.38305
6827.91328	0.38351
6824.05570	0.38339
6820.19812	0.38275
6816.34055	0.38278
6812.48297	0.38346
6808.62539	0.38420
6804.76781	0.38443
6800.91023	0.38390
6797.05266	0.38374
6793.19508	0.38405
6789.33750	0.38436
6785.47992	0.38560
6781.62234	0.38621
6777.76477	0.38511
6773.90719	0.38432
6770.04961	0.38430
6766.19203	0.38469
6762.33445	0.38507
6758.47687	0.38548
6754.61930	0.38622
6750.76172	0.38620
6746.90414	0.38581
6743.04656	0.38615
6739.18898	0.38616
6735.33141	0.38556
6731.47383	0.38584
6727.61625	0.38679
6723.75867	0.38740
6719.90109	0.38772
6716.04352	0.38740
6712.18594	0.38685
6708.32836	0.38668
6704.47078	0.38691
6700.61320	0.38749
6696.75562	0.38788
6692.89805	0.38818
6689.04047	0.38821
6685.18289	0.38818
6681.32531	0.38866
6677.46773	0.38884
6673.61016	0.38865
6669.75258	0.38876
6665.89500	0.38948
6662.03742	0.39058
6658.17984	0.39094
6654.32227	0.39003
6650.46469	0.38956
6646.60711	0.39054
6642.74953	0.39070
6638.89195	0.39012
6635.03437	0.39038
6631.17680	0.39073
6627.31922	0.39085
6623.46164	0.39100
6619.60406	0.39149
6615.74648	0.39177
6611.88891	0.39142
6608.03133	0.39148
6604.17375	0.39177
6600.31617	0.39234
6596.45859	0.39281
6592.60102	0.39233
6588.74344	0.39199
6584.88586	0.39201
6581.02828	0.39197
6577.17070	0.39225
6573.31312	0.39286
6569.45555	0.39341
6565.59797	0.39349
6561.74039	0.39375
6557.88281	0.39396
6554.02523	0.39360
6550.16766	0.39350
6546.31008	0.39370
6542.45250	0.39442
6538.59492	0.39526
6534.73734	0.39519
6530.87977	0.39481
6527.02219	0.39481
6523.16461	0.39526
6519.30703	0.39554
6515.44945	0.39540
6511.59187	0.39559
6507.73430	0.39554
6503.87672	0.39507
6500.01914	0.39492
6496.16156	0.39548
6492.30398	0.39640
6488.44641	0.39641
6484.58883	0.39616
6480.73125	0.39672
6476.87367	0.39699
6473.01609	0.39704
6469.15852	0.39756
6465.30094	0.39775
6461.44336	0.39748
6457.58578	0.39717
6453.72820	0.39699
6449.87062	0.39776
6446.01305	0.39873
6442.15547	0.39890
6438.29789	0.39936
6434.44031	0.39968
6430.58273	0.39935
6426.72516	0.39956
6422.86758	0.39986
6419.01000	0.39980
6415.15242	0.40006
6411.29484	0.39987
6407.43727	0.39911
6403.57969	0.39964
6399.72211	0.40071
6395.86453	0.40073
6392.00695	0.40082
6388.14937	0.40070
6384.29180	0.40056
6380.43422	0.40132
6376.57664	0.40157
6372.71906	0.40195
6368.86148	0.40265
6365.00391	0.40207
6361.14633	0.40177
6357.28875	0.40248
6353.43117	0.40295
6349.57359	0.40342
6345.71602	0.40391
6341.85844	0.40428
6338.00086	0.40452
6334.14328	0.40426
6330.28570	0.40445
6326.42812	0.40505
6322.57055	0.40457
6318.71297	0.40419
6314.85539	0.40487
6310.99781	0.40552
6307.14023	0.40629
6303.28266	0.40679
6299.42508	0.40624
6295.56750	0.40585
6291.70992	0.40629
6287.85234	0.40692
6283.99477	0.40730
6280.13719	0.40756
6276.27961	0.40820
6272.42203	0.40832
6268.56445	0.40743
6264.70687	0.40737
6260.84930	0.40814
6256.99172	0.40827
6253.13414	0.40830
6249.27656	0.40839
6245.41898	0.40817
6241.56141	0.40855
6237.70383	0.40905
6233.84625	0.40928
6229.98867	0.41012
6226.13109	0.41013
6222.27352	0.40934
6218.41594	0.40977
6214.55836	0.41046
6210.70078	0.41067
6206.84320	0.41061
6202.98562	0.41052
6199.12805	0.41134
6195.27047	0.41195
6191.41289	0.41187
6187.55531	0.41211
6183.69773	0.41244
6179.84016	0.41262
6175.98258	0.41223
6172.12500	0.41185
6168.26742	0.41283
6164.40984	0.41387
6160.55227	0.41352
6156.69469	0.41276
6152.83711	0.41306
6148.97953	0.41390
6145.12195	0.41415
6141.26437	0.41409
6137.40680	0.41405
6133.54922	0.41414
6129.69164	0.41440
6125.83406	0.41462
6121.97648	0.41477
6118.11891	0.41456
6114.26133	0.41458
6110.40375	0.41537
6106.54617	0.41585
6102.68859	0.41606
6098.83102	0.41628
6094.97344	0.41604
6091.11586	0.41638
6087.25828	0.41694
6083.40070	0.41677
6079.54312	0.41708
6075.68555	0.41781
6071.82797	0.41812
6067.97039	0.41810
6064.11281	0.41814
6060.25523	0.41817
6056.39766	0.41800
6052.54008	0.41837
6048.68250	0.41879
6044.82492	0.41860
6040.96734	0.41869
6037.10977	0.41925
6033.25219	0.41982
6029.39461	0.41989
6025.53703	0.42036
6021.67945	0.42120
6017.82187	0.42058
6013.96430	0.42045
6010.10672	0.42170
6006.24914	0.42156
6002.39156	0.42085
5998.53398	0.42115
5994.67641	0.42119
5990.81883	0.42111
5986.96125	0.42174
5983.10367	0.42244
5979.24609	0.42280
5975.38852	0.42276
5971.53094	0.42273
5967.67336	0.42323
5963.81578	0.42344
5959.95820	0.42326
5956.10062	0.42348
5952.24305	0.42379
5948.38547	0.42393
5944.52789	0.42418
5940.67031	0.42440
5936.81273	0.42437
5932.95516	0.42436
5929.09758	0.42451
5925.24000	0.42484
5921.38242	0.42532
5917.52484	0.42544
5913.66727	0.42543
5909.80969	0.42594
5905.95211	0.42645
5902.09453	0.42650
5898.23695	0.42617
5894.37937	0.42576
5890.52180	0.42602
5886.66422	0.42693
5882.80664	0.42738
5878.94906	0.42742
5875.09148	0.42795
5871.23391	0.42805
5867.37633	0.42754
5863.51875	0.42804
5859.66117	0.42908
5855.80359	0.42932
5851.94602	0.42919
5848.08844	0.42912
5844.23086	0.42885
5840.37328	0.42866
5836.51570	0.42908
5832.65812	0.43020
5828.80055	0.43139
5824.94297	0.43133
5821.08539	0.43037
5817.22781	0.43042
5813.37023	0.43118
5809.51266	0.43131
5805.65508	0.43082
5801.79750	0.43041
5797.93992	0.43066
5794.08234	0.43108
5790.22477	0.43139
5786.36719	0.43214
5782.50961	0.43259
5778.65203	0.43215
5774.79445	0.43179
5770.93687	0.43196
5767.07930	0.43220
5763.22172	0.43274
5759.36414	0.43313
5755.50656	0.43268
5751.64898	0.43243
5747.79141	0.43300
5743.93383	0.43380
5740.07625	0.43394
5736.21867	0.43350
5732.36109	0.43388
5728.50352	0.43461
5724.64594	0.43466
5720.78836	0.43475
5716.93078	0.43479
5713.07320	0.43413
5709.21562	0.43380
5705.35805	0.43465
5701.50047	0.43531
5697.64289	0.43537
5693.78531	0.43557
5689.92773	0.43529
5686.07016	0.43529
5682.21258	0.43615
5678.35500	0.43591
5674.49742	0.43560
5670.63984	0.43671
5666.78227	0.43698
5662.92469	0.43640
5659.06711	0.43655
5655.20953	0.43701
5651.35195	0.43735
5647.49437	0.43706
5643.63680	0.43683
5639.77922	0.43730
5635.92164	0.43766
5632.06406	0.43800
5628.20648	0.43821
5624.34891	0.43816
5620.49133	0.43804
5616.63375	0.43764
5612.77617	0.43764
5608.91859	0.43813
5605.06102	0.43836
5601.20344	0.43849
5597.34586	0.43880
5593.48828	0.43918
5589.63070	0.43913
5585.77312	0.43862
5581.91555	0.43884
5578.05797	0.43946
5574.20039	0.43919
5570.34281	0.43878
5566.48523	0.43884
5562.62766	0.43898
5558.77008	0.43955
5554.91250	0.44034
5551.05492	0.44035
5547.19734	0.43997
5543.33977	0.43988
5539.48219	0.43993
5535.62461	0.44030
5531.76703	0.44069
5527.90945	0.44093
5524.05187	0.44112
5520.19430	0.44079
5516.33672	0.44057
5512.47914	0.44092
5508.62156	0.44096
5504.76398	0.44096
5500.90641	0.44172
5497.04883	0.44226
5493.19125	0.44164
5489.33367	0.44086
5485.47609	0.44153
5481.61852	0.44323
5477.76094	0.44366
5473.90336	0.44262
5470.04578	0.44258
5466.18820	0.44293
5462.33062	0.44255
5458.47305	0.44243
5454.61547	0.44332
5450.75789	0.44347
5446.90031	0.44174
5443.04273	0.44112
5439.18516	0.44251
5435.32758	0.44347
5431.47000	0.44370
5427.61242	0.44365
5423.75484	0.44355
5419.89727	0.44407
5416.03969	0.44390
5412.18211	0.44226
5408.32453	0.44224
5404.46695	0.44333
5400.60937	0.44455
5396.75180	0.44541
5392.89422	0.44505
5389.03664	0.44457
5385.17906	0.44377
5381.32148	0.44399
5377.46391	0.44390
5373.60633	0.44306
5369.74875	0.44443
5365.89117	0.44435
5362.03359	0.44382
5358.17602	0.44545
5354.31844	0.44571
5350.46086	0.44544
5346.60328	0.44520
5342.74570	0.44429
5338.88812	0.44318
5335.03055	0.44273
5331.17297	0.44422
5327.31539	0.44503
5323.45781	0.44520
5319.60023	0.44553
5315.74266	0.44523
5311.88508	0.44571
5308.02750	0.44577
5304.16992	0.44482
5300.31234	0.44475
5296.45477	0.44559
5292.59719	0.44615
5288.73961	0.44545
5284.88203	0.44483
5281.02445	0.44516
5277.16687	0.44576
5273.30930	0.44634
5269.45172	0.44643
5265.59414	0.44542
5261.73656	0.44489
5257.87898	0.44560
5254.02141	0.44630
5250.16383	0.44700
5246.30625	0.44623
5242.44867	0.44506
5238.59109	0.44550
5234.73352	0.44526
5230.87594	0.44496
5227.01836	0.44582
5223.16078	0.44604
5219.30320	0.44526
5215.44562	0.44518
5211.58805	0.44597
5207.73047	0.44465
5203.87289	0.44377
5200.01531	0.44536
5196.15773	0.44551
5192.30016	0.44531
5188.44258	0.44591
5184.58500	0.44591
5180.72742	0.44586
5176.86984	0.44532
5173.01227	0.44489
5169.15469	0.44515
5165.29711	0.44493
5161.43953	0.44478
5157.58195	0.44502
5153.72437	0.44500
5149.86680	0.44513
5146.00922	0.44537
5142.15164	0.44506
5138.29406	0.44470
5134.43648	0.44489
5130.57891	0.44516
5126.72133	0.44508
5122.86375	0.44487
5119.00617	0.44494
5115.14859	0.44520
5111.29102	0.44509
5107.43344	0.44475
5103.57586	0.44497
5099.71828	0.44536
5095.86070	0.44521
5092.00312	0.44489
5088.14555	0.44492
5084.28797	0.44515
5080.43039	0.44503
5076.57281	0.44483
5072.71523	0.44502
5068.85766	0.44508
5065.00008	0.44482
5061.14250	0.44465
5057.28492	0.44469
5053.42734	0.44476
5049.56977	0.44452
5045.71219	0.44436
5041.85461	0.44469
5037.99703	0.44476
5034.13945	0.44432
5030.28187	0.44426
5026.42430	0.44436
5022.56672	0.44399
5018.70914	0.44379
5014.85156	0.44414
5010.99398	0.44463
5007.13641	0.44466
5003.27883	0.44397
4999.42125	0.44375
4995.56367	0.44437
4991.70609	0.44448
4987.84852	0.44406
4983.99094	0.44408
4980.13336	0.44452
4976.27578	0.44478
4972.41820	0.44463
4968.56062	0.44415
4964.70305	0.44379
4960.84547	0.44395
4956.98789	0.44394
4953.13031	0.44356
4949.27273	0.44349
4945.41516	0.44353
4941.55758	0.44337
4937.70000	0.44331
4933.84242	0.44334
4929.98484	0.44343
4926.12727	0.44378
4922.26969	0.44382
4918.41211	0.44334
4914.55453	0.44315
4910.69695	0.44323
4906.83937	0.44333
4902.98180	0.44348
4899.12422	0.44312
4895.26664	0.44276
4891.40906	0.44275
4887.55148	0.44254
4883.69391	0.44268
4879.83633	0.44322
4875.97875	0.44293
4872.12117	0.44213
4868.26359	0.44207
4864.40602	0.44227
4860.54844	0.44190
4856.69086	0.44152
4852.83328	0.44139
4848.97570	0.44129
4845.11812	0.44142
4841.26055	0.44178
4837.40297	0.44200
4833.54539	0.44188
4829.68781	0.44160
4825.83023	0.44120
4821.97266	0.44070
4818.11508	0.44060
4814.25750	0.44077
4810.39992	0.44075
4806.54234	0.44047
4802.68477	0.44021
4798.82719	0.44014
4794.96961	0.44018
4791.11203	0.44032
4787.25445	0.44004
4783.39687	0.43954
4779.53930	0.43968
4775.68172	0.43998
4771.82414	0.43993
4767.96656	0.43959
4764.10898	0.43942
4760.25141	0.43952
4756.39383	0.43929
4752.53625	0.43902
4748.67867	0.43902
4744.82109	0.43900
4740.96352	0.43895
4737.10594	0.43877
4733.24836	0.43840
4729.39078	0.43824
4725.53320	0.43862
4721.67562	0.43878
4717.81805	0.43842
4713.96047	0.43837
4710.10289	0.43833
4706.24531	0.43803
4702.38773	0.43798
4698.53016	0.43781
4694.67258	0.43715
4690.81500	0.43681
4686.95742	0.43718
4683.09984	0.43753
4679.24227	0.43742
4675.38469	0.43708
4671.52711	0.43660
4667.66953	0.43638
4663.81195	0.43675
4659.95437	0.43687
4656.09680	0.43643
4652.23922	0.43609
4648.38164	0.43590
4644.52406	0.43572
4640.66648	0.43575
4636.80891	0.43598
4632.95133	0.43599
4629.09375	0.43560
4625.23617	0.43540
4621.37859	0.43536
4617.52102	0.43490
4613.66344	0.43458
4609.80586	0.43478
4605.94828	0.43483
4602.09070	0.43481
4598.23312	0.43493
4594.37555	0.43464
4590.51797	0.43423
4586.66039	0.43420
4582.80281	0.43381
4578.94523	0.43310
4575.08766	0.43316
4571.23008	0.43356
4567.37250	0.43351
4563.51492	0.43338
4559.65734	0.43338
4555.79977	0.43332
4551.94219	0.43308
4548.08461	0.43278
4544.22703	0.43261
4540.36945	0.43268
4536.51187	0.43261
4532.65430	0.43216
4528.79672	0.43197
4524.93914	0.43216
4521.08156	0.43209
4517.22398	0.43182
4513.36641	0.43169
4509.50883	0.43165
4505.65125	0.43155
4501.79367	0.43150
4497.93609	0.43157
4494.07852	0.43169
4490.22094	0.43145
4486.36336	0.43083
4482.50578	0.43069
4478.64820	0.43095
4474.79062	0.43087
4470.93305	0.43067
4467.07547	0.43040
4463.21789	0.43003
4459.36031	0.42994
4455.50273	0.42993
4451.64516	0.42996
4447.78758	0.43009
4443.93000	0.42975
4440.07242	0.42915
4436.21484	0.42901
4432.35727	0.42910
4428.49969	0.42911
4424.64211	0.42907
4420.78453	0.42905
4416.92695	0.42897
4413.06937	0.42862
4409.21180	0.42837
4405.35422	0.42829
4401.49664	0.42814
4397.63906	0.42800
4393.78148	0.42789
4389.92391	0.42791
4386.06633	0.42789
4382.20875	0.42747
4378.35117	0.42701
4374.49359	0.42695
4370.63602	0.42710
4366.77844	0.42706
4362.92086	0.42683
4359.06328	0.42665
4355.20570	0.42636
4351.34812	0.42586
4347.49055	0.42567
4343.63297	0.42580
4339.77539	0.42582
4335.91781	0.42576
4332.06023	0.42555
4328.20266	0.42495
4324.34508	0.42468
4320.48750	0.42510
4316.62992	0.42509
4312.77234	0.42468
4308.91477	0.42474
4305.05719	0.42467
4301.19961	0.42419
4297.34203	0.42394
4293.48445	0.42381
4289.62687	0.42354
4285.76930	0.42342
4281.91172	0.42360
4278.05414	0.42376
4274.19656	0.42359
4270.33898	0.42327
4266.48141	0.42296
4262.62383	0.42272
4258.76625	0.42262
4254.90867	0.42260
4251.05109	0.42244
4247.19352	0.42220
4243.33594	0.42205
4239.47836	0.42191
4235.62078	0.42175
4231.76320	0.42175
4227.90562	0.42171
4224.04805	0.42137
4220.19047	0.42123
4216.33289	0.42143
4212.47531	0.42133
4208.61773	0.42099
4204.76016	0.42079
4200.90258	0.42058
4197.04500	0.42059
4193.18742	0.42067
4189.32984	0.42018
4185.47227	0.41964
4181.61469	0.41956
4177.75711	0.41959
4173.89953	0.41967
4170.04195	0.41961
4166.18437	0.41940
4162.32680	0.41944
4158.46922	0.41935
4154.61164	0.41894
4150.75406	0.41880
4146.89648	0.41869
4143.03891	0.41829
4139.18133	0.41810
4135.32375	0.41800
4131.46617	0.41780
4127.60859	0.41791
4123.75102	0.41796
4119.89344	0.41776
4116.03586	0.41777
4112.17828	0.41785
4108.32070	0.41758
4104.46312	0.41699
4100.60555	0.41677
4096.74797	0.41702
4092.89039	0.41695
4089.03281	0.41668
4085.17523	0.41671
4081.31766	0.41677
4077.46008	0.41656
4073.60250	0.41616
4069.74492	0.41602
4065.88734	0.41614
4062.02977	0.41604
4058.17219	0.41577
4054.31461	0.41558
4050.45703	0.41557
4046.59945	0.41559
4042.74187	0.41530
4038.88430	0.41495
4035.02672	0.41488
4031.16914	0.41495
4027.31156	0.41489
4023.45398	0.41463
4019.59641	0.41426
4015.73883	0.41391
4011.88125	0.41370
4008.02367	0.41353
4004.16609	0.41356
4000.30852	0.41372
3996.45094	0.41354
3992.59336	0.41331
3988.73578	0.41320
3984.87820	0.41305
3981.02062	0.41273
3977.16305	0.41219
3973.30547	0.41208
3969.44789	0.41220
3965.59031	0.41218
3961.73273	0.41242
3957.87516	0.41212
3954.01758	0.41144
3950.16000	0.41147
3946.30242	0.41141
3942.44484	0.41127
3938.58727	0.41155
3934.72969	0.41183
3930.87211	0.41256
3927.01453	0.41176
3923.15695	0.40908
3919.29937	0.40864
3915.44180	0.41064
3911.58422	0.41117
3907.72664	0.41090
3903.86906	0.41160
3900.01148	0.40971
3896.15391	0.40704
3892.29633	0.40742
3888.43875	0.40936
3884.58117	0.41113
3880.72359	0.41167
3876.86602	0.41228
3873.00844	0.41289
3869.15086	0.40831
3865.29328	0.40684
3861.43570	0.41094
3857.57812	0.41346
3853.72055	0.41241
3849.86297	0.40837
3846.00539	0.40863
3842.14781	0.41042
3838.29023	0.41309
3834.43266	0.41284
3830.57508	0.40812
3826.71750	0.40570
3822.85992	0.40603
3819.00234	0.40833
3815.14477	0.40893
3811.28719	0.40660
3807.42961	0.40708
3803.57203	0.40868
3799.71445	0.40759
3795.85687	0.40828
3791.99930	0.40709
3788.14172	0.40508
3784.28414	0.40631
3780.42656	0.40714
3776.56898	0.40631
3772.71141	0.40708
3768.85383	0.40550
3764.99625	0.40285
3761.13867	0.40313
3757.28109	0.40102
3753.42352	0.39765
3749.56594	0.40324
3745.70836	0.41293
3741.85078	0.41051
3737.99320	0.40732
3734.13562	0.40974
3730.27805	0.40605
3726.42047	0.40448
3722.56289	0.40827
3718.70531	0.40792
3714.84773	0.40879
3710.99016	0.41141
3707.13258	0.40810
3703.27500	0.40504
3699.41742	0.40241
3695.55984	0.40065
3691.70227	0.39949
3687.84469	0.39798
3683.98711	0.40064
3680.12953	0.40349
3676.27195	0.40047
3672.41437	0.39942
3668.55680	0.40187
3664.69922	0.40198
3660.84164	0.40315
3656.98406	0.40203
3653.12648	0.40181
3649.26891	0.40598
3645.41133	0.40125
3641.55375	0.40022
3637.69617	0.40265
3633.83859	0.40074
3629.98102	0.39871
3626.12344	0.40048
3622.26586	0.40094
3618.40828	0.40111
3614.55070	0.40071
3610.69312	0.40077
3606.83555	0.40023
3602.97797	0.39937
3599.12039	0.40058
3595.26281	0.40110
3591.40523	0.40008
3587.54766	0.39980
3583.69008	0.39954
3579.83250	0.39945
3575.97492	0.39876
3572.11734	0.39777
3568.25977	0.39917
3564.40219	0.40034
3560.54461	0.39917
3556.68703	0.39815
3552.82945	0.39701
3548.97187	0.39718
3545.11430	0.39826
3541.25672	0.39798
3537.39914	0.39703
3533.54156	0.39659
3529.68398	0.39726
3525.82641	0.39697
3521.96883	0.39576
3518.11125	0.39598
3514.25367	0.39597
3510.39609	0.39548
3506.53852	0.39580
3502.68094	0.39580
3498.82336	0.39546
3494.96578	0.39581
3491.10820	0.39598
3487.25062	0.39576
3483.39305	0.39577
3479.53547	0.39559
3475.67789	0.39516
3471.82031	0.39480
3467.96273	0.39477
3464.10516	0.39504
3460.24758	0.39489
3456.39000	0.39427
3452.53242	0.39386
3448.67484	0.39453
3444.81727	0.39519
3440.95969	0.39428
3437.10211	0.39340
3433.24453	0.39333
3429.38695	0.39334
3425.52937	0.39345
3421.67180	0.39381
3417.81422	0.39367
3413.95664	0.39308
3410.09906	0.39312
3406.24148	0.39327
3402.38391	0.39309
3398.52633	0.39282
3394.66875	0.39215
3390.81117	0.39199
3386.95359	0.39249
3383.09602	0.39260
3379.23844	0.39261
3375.38086	0.39268
3371.52328	0.39249
3367.66570	0.39237
3363.80812	0.39225
3359.95055	0.39204
3356.09297	0.39195
3352.23539	0.39182
3348.37781	0.39170
3344.52023	0.39164
3340.66266	0.39166
3336.80508	0.39175
3332.94750	0.39158
3329.08992	0.39145
3325.23234	0.39137
3321.37477	0.39108
3317.51719	0.39105
3313.65961	0.39120
3309.80203	0.39101
3305.94445	0.39078
3302.08687	0.39073
3298.22930	0.39076
3294.37172	0.39075
3290.51414	0.39067
3286.65656	0.39075
3282.79898	0.39086
3278.94141	0.39076
3275.08383	0.39054
3271.22625	0.39041
3267.36867	0.39043
3263.51109	0.39028
3259.65352	0.39018
3255.79594	0.39029
3251.93836	0.39011
3248.08078	0.39007
3244.22320	0.39032
3240.36562	0.39010
3236.50805	0.38973
3232.65047	0.38973
3228.79289	0.38973
3224.93531	0.38967
3221.07773	0.38960
3217.22016	0.38921
3213.36258	0.38898
3209.50500	0.38919
3205.64742	0.38937
3201.78984	0.38948
3197.93227	0.38930
3194.07469	0.38913
3190.21711	0.38931
3186.35953	0.38916
3182.50195	0.38882
3178.64437	0.38882
3174.78680	0.38911
3170.92922	0.38935
3167.07164	0.38916
3163.21406	0.38901
3159.35648	0.38907
3155.49891	0.38887
3151.64133	0.38868
3147.78375	0.38860
3143.92617	0.38850
3140.06859	0.38863
3136.21102	0.38868
3132.35344	0.38848
3128.49586	0.38833
3124.63828	0.38813
3120.78070	0.38814
3116.92312	0.38847
3113.06555	0.38844
3109.20797	0.38835
3105.35039	0.38847
3101.49281	0.38829
3097.63523	0.38814
3093.77766	0.38832
3089.92008	0.38827
3086.06250	0.38806
3082.20492	0.38801
3078.34734	0.38788
3074.48977	0.38778
3070.63219	0.38786
3066.77461	0.38770
3062.91703	0.38750
3059.05945	0.38797
3055.20187	0.38846
3051.34430	0.38811
3047.48672	0.38765
3043.62914	0.38765
3039.77156	0.38767
3035.91398	0.38762
3032.05641	0.38762
3028.19883	0.38753
3024.34125	0.38743
3020.48367	0.38738
3016.62609	0.38719
3012.76852	0.38707
3008.91094	0.38727
3005.05336	0.38734
3001.19578	0.38706
2997.33820	0.38703
2993.48062	0.38736
2989.62305	0.38742
2985.76547	0.38705
2981.90789	0.38680
2978.05031	0.38683
2974.19273	0.38676
2970.33516	0.38655
2966.47758	0.38620
2962.62000	0.38579
2958.76242	0.38558
2954.90484	0.38554
2951.04727	0.38550
2947.18969	0.38551
2943.33211	0.38548
2939.47453	0.38528
2935.61695	0.38486
2931.75937	0.38420
2927.90180	0.38345
2924.04422	0.38297
2920.18664	0.38287
2916.32906	0.38303
2912.47148	0.38348
2908.61391	0.38389
2904.75633	0.38406
2900.89875	0.38428
2897.04117	0.38442
2893.18359	0.38433
2889.32602	0.38445
2885.46844	0.38479
2881.61086	0.38496
2877.75328	0.38473
2873.89570	0.38441
2870.03812	0.38450
2866.18055	0.38457
2862.32297	0.38427
2858.46539	0.38409
2854.60781	0.38401
2850.75023	0.38364
2846.89266	0.38348
2843.03508	0.38404
2839.17750	0.38475
2835.31992	0.38482
2831.46234	0.38456
2827.60477	0.38475
2823.74719	0.38487
2819.88961	0.38465
2816.03203	0.38469
2812.17445	0.38489
2808.31687	0.38503
2804.45930	0.38509
2800.60172	0.38498
2796.74414	0.38489
2792.88656	0.38483
2789.02898	0.38474
2785.17141	0.38464
2781.31383	0.38456
2777.45625	0.38453
2773.59867	0.38447
2769.74109	0.38450
2765.88352	0.38462
2762.02594	0.38449
2758.16836	0.38439
2754.31078	0.38455
2750.45320	0.38426
2746.59562	0.38383
2742.73805	0.38407
2738.88047	0.38419
2735.02289	0.38393
2731.16531	0.38398
2727.30773	0.38406
2723.45016	0.38398
2719.59258	0.38403
2715.73500	0.38397
2711.87742	0.38394
2708.01984	0.38401
2704.16227	0.38389
2700.30469	0.38380
2696.44711	0.38363
2692.58953	0.38342
2688.73195	0.38350
2684.87437	0.38361
2681.01680	0.38349
2677.15922	0.38332
2673.30164	0.38338
2669.44406	0.38343
2665.58648	0.38312
2661.72891	0.38304
2657.87133	0.38315
2654.01375	0.38309
2650.15617	0.38318
2646.29859	0.38308
2642.44102	0.38277
2638.58344	0.38277
2634.72586	0.38279
2630.86828	0.38269
2627.01070	0.38258
2623.15312	0.38248
2619.29555	0.38259
2615.43797	0.38276
2611.58039	0.38297
2607.72281	0.38316
2603.86523	0.38291
2600.00766	0.38249
2596.15008	0.38233
2592.29250	0.38232
2588.43492	0.38236
2584.57734	0.38254
2580.71977	0.38258
2576.86219	0.38224
2573.00461	0.38203
2569.14703	0.38218
2565.28945	0.38240
2561.43187	0.38241
2557.57430	0.38230
2553.71672	0.38249
2549.85914	0.38253
2546.00156	0.38233
2542.14398	0.38230
2538.28641	0.38214
2534.42883	0.38197
2530.57125	0.38215
2526.71367	0.38230
2522.85609	0.38205
2518.99852	0.38182
2515.14094	0.38184
2511.28336	0.38182
2507.42578	0.38174
2503.56820	0.38175
2499.71062	0.38218
2495.85305	0.38267
2491.99547	0.38246
2488.13789	0.38198
2484.28031	0.38172
2480.42273	0.38155
2476.56516	0.38153
2472.70758	0.38157
2468.85000	0.38153
2464.99242	0.38161
2461.13484	0.38185
2457.27727	0.38195
2453.41969	0.38202
2449.56211	0.38193
2445.70453	0.38132
2441.84695	0.38113
2437.98937	0.38171
2434.13180	0.38173
2430.27422	0.38148
2426.41664	0.38182
2422.55906	0.38180
2418.70148	0.38152
2414.84391	0.38180
2410.98633	0.38219
2407.12875	0.38207
2403.27117	0.38155
2399.41359	0.38150
2395.55602	0.38185
2391.69844	0.38189
2387.84086	0.38157
2383.98328	0.38108
2380.12570	0.38123
2376.26812	0.38145
2372.41055	0.38015
2368.55297	0.38215
2364.69539	0.38617
2360.83781	0.39163
2356.98023	0.39764
2353.12266	0.38878
2349.26508	0.38409
2345.40750	0.38287
2341.54992	0.38264
2337.69234	0.38326
2333.83477	0.37852
2329.97719	0.36999
2326.11961	0.37291
2322.26203	0.38339
2318.40445	0.38672
2314.54687	0.38527
2310.68930	0.38373
2306.83172	0.38236
2302.97414	0.38229
2299.11656	0.38275
2295.25898	0.38300
2291.40141	0.38357
2287.54383	0.38330
2283.68625	0.38274
2279.82867	0.38325
2275.97109	0.38350
2272.11352	0.38337
2268.25594	0.38384
2264.39836	0.38409
2260.54078	0.38422
2256.68320	0.38469
2252.82562	0.38509
2248.96805	0.38473
2245.11047	0.38357
2241.25289	0.38321
2237.39531	0.38400
2233.53773	0.38424
2229.68016	0.38376
2225.82258	0.38371
2221.96500	0.38385
2218.10742	0.38335
2214.24984	0.38267
2210.39227	0.38259
2206.53469	0.38304
2202.67711	0.38330
2198.81953	0.38357
2194.96195	0.38438
2191.10437	0.38435
2187.24680	0.38329
2183.38922	0.38316
2179.53164	0.38377
2175.67406	0.38399
2171.81648	0.38394
2167.95891	0.38362
2164.10133	0.38347
2160.24375	0.38409
2156.38617	0.38466
2152.52859	0.38465
2148.67102	0.38506
2144.81344	0.38616
2140.95586	0.38691
2137.09828	0.38716
2133.24070	0.38776
2129.38312	0.38884
2125.52555	0.38970
2121.66797	0.38963
2117.81039	0.38976
2113.95281	0.39188
2110.09523	0.39387
2106.23766	0.39449
2102.38008	0.39486
2098.52250	0.39393
2094.66492	0.39419
2090.80734	0.39827
2086.94977	0.40274
2083.09219	0.40405
2079.23461	0.40286
2075.37703	0.40380
2071.51945	0.40623
2067.66187	0.40564
2063.80430	0.40390
2059.94672	0.40424
2056.08914	0.40612
2052.23156	0.40797
2048.37398	0.40984
2044.51641	0.41089
2040.65883	0.40997
2036.80125	0.40899
2032.94367	0.40789
2029.08609	0.40651
2025.22852	0.40660
2021.37094	0.40661
2017.51336	0.40666
2013.65578	0.40880
2009.79820	0.41015
2005.94062	0.40938
2002.08305	0.40814
1998.22547	0.40720
1994.36789	0.40724
1990.51031	0.40719
1986.65273	0.40642
1982.79516	0.40583
1978.93758	0.40757
1975.08000	0.40966
1971.22242	0.40652
1967.36484	0.40560
1963.50727	0.41000
1959.64969	0.40924
1955.79211	0.40703
1951.93453	0.40854
1948.07695	0.40982
1944.21937	0.40944
1940.36180	0.40727
1936.50422	0.40584
1932.64664	0.40640
1928.78906	0.40683
1924.93148	0.40565
1921.07391	0.40356
1917.21633	0.40558
1913.35875	0.40988
1909.50117	0.40871
1905.64359	0.40675
1901.78602	0.40838
1897.92844	0.40785
1894.07086	0.40725
1890.21328	0.40722
1886.35570	0.40392
1882.49812	0.40280
1878.64055	0.40710
1874.78297	0.40960
1870.92539	0.40464
1867.06781	0.40159
1863.21023	0.40641
1859.35266	0.40890
1855.49508	0.40782
1851.63750	0.40741
1847.77992	0.40858
1843.92234	0.40798
1840.06477	0.40787
1836.20719	0.40866
1832.34961	0.40452
1828.49203	0.40206
1824.63445	0.40718
1820.77687	0.40951
1816.91930	0.40977
1813.06172	0.41136
1809.20414	0.41039
1805.34656	0.40733
1801.48898	0.40445
1797.63141	0.40246
1793.77383	0.40694
1789.91625	0.41464
1786.05867	0.41457
1782.20109	0.40837
1778.34352	0.40501
1774.48594	0.41266
1770.62836	0.41930
1766.77078	0.41291
1762.91320	0.40738
1759.05562	0.40526
1755.19805	0.40731
1751.34047	0.40728
1747.48289	0.39894
1743.62531	0.40051
1739.76773	0.40764
1735.91016	0.40546
1732.05258	0.40754
1728.19500	0.41250
1724.33742	0.41021
1720.47984	0.40488
1716.62227	0.39538
1712.76469	0.39951
1708.90711	0.40520
1705.04953	0.40197
1701.19195	0.41023
1697.33437	0.42174
1693.47680	0.40898
1689.61922	0.39705
1685.76164	0.39271
1681.90406	0.40389
1678.04648	0.40640
1674.18891	0.40040
1670.33133	0.40080
1666.47375	0.40332
1662.61617	0.40169
1658.75859	0.40096
1654.90102	0.40242
1651.04344	0.40294
1647.18586	0.40001
1643.32828	0.39820
1639.47070	0.39578
1635.61312	0.39509
1631.75555	0.40389
1627.89797	0.41321
1624.04039	0.41586
1620.18281	0.41017
1616.32523	0.40407
1612.46766	0.40180
1608.61008	0.40354
1604.75250	0.40722
1600.89492	0.40789
1597.03734	0.40469
1593.17977	0.40246
1589.32219	0.40470
1585.46461	0.40772
1581.60703	0.40747
1577.74945	0.40299
1573.89187	0.39612
1570.03430	0.40158
1566.17672	0.41369
1562.31914	0.41621
1558.46156	0.41425
1554.60398	0.40189
1550.74641	0.39292
1546.88883	0.40015
1543.03125	0.41487
1539.17367	0.41428
1535.31609	0.40858
1531.45852	0.41084
1527.60094	0.41853
1523.74336	0.40915
1519.88578	0.38756
1516.02820	0.40152
1512.17062	0.41576
1508.31305	0.41606
1504.45547	0.41621
1500.59789	0.42062
1496.74031	0.41845
1492.88273	0.40902
1489.02516	0.40519
1485.16758	0.40619
1481.31000	0.40835
1477.45242	0.41666
1473.59484	0.41756
1469.73727	0.40312
1465.87969	0.39689
1462.02211	0.39802
1458.16453	0.40258
1454.30695	0.40127
1450.44937	0.39621
1446.59180	0.39973
1442.73422	0.40910
1438.87664	0.41635
1435.01906	0.41848
1431.16148	0.41334
1427.30391	0.41121
1423.44633	0.41489
1419.58875	0.41295
1415.73117	0.40859
1411.87359	0.40812
1408.01602	0.40459
1404.15844	0.40247
1400.30086	0.40075
1396.44328	0.39913
1392.58570	0.40745
1388.72812	0.41456
1384.87055	0.41106
1381.01297	0.40663
1377.15539	0.41005
1373.29781	0.41181
1369.44023	0.40474
1365.58266	0.39969
1361.72508	0.40262
1357.86750	0.40866
1354.00992	0.40990
1350.15234	0.40726
1346.29477	0.40544
1342.43719	0.40445
1338.57961	0.40345
1334.72203	0.40492
1330.86445	0.40833
1327.00687	0.41015
1323.14930	0.40845
1319.29172	0.40486
1315.43414	0.40498
1311.57656	0.40886
1307.71898	0.41013
1303.86141	0.40876
1300.00383	0.40564
1296.14625	0.40495
1292.28867	0.40722
1288.43109	0.40581
1284.57352	0.40703
1280.71594	0.41143
1276.85836	0.41113
1273.00078	0.41042
1269.14320	0.40928
1265.28562	0.40469
1261.42805	0.40274
1257.57047	0.40717
1253.71289	0.41204
1249.85531	0.41164
1245.99773	0.40804
1242.14016	0.40514
1238.28258	0.40587
1234.42500	0.40654
1230.56742	0.40421
1226.70984	0.40598
1222.85227	0.41110
1218.99469	0.41062
1215.13711	0.40717
1211.27953	0.40848
1207.42195	0.40911
1203.56437	0.40581
1199.70680	0.40797
1195.84922	0.41151
1191.99164	0.41164
1188.13406	0.41301
1184.27648	0.40987
1180.41891	0.41112
1176.56133	0.42219
1172.70375	0.41582
1168.84617	0.40091
1164.98859	0.40514
1161.13102	0.40878
1157.27344	0.40904
1153.41586	0.41510
1149.55828	0.41638
1145.70070	0.42838
1141.84312	0.43838
1137.98555	0.41925
1134.12797	0.39901
1130.27039	0.38887
1126.41281	0.36518
1122.55523	0.35785
1118.69766	0.39660
1114.84008	0.44145
1110.98250	0.48898
1107.12492	0.50686
1103.26734	0.48149
1099.40977	0.52231
1095.55219	0.51000
1091.69461	0.35220
1087.83703	0.38495
1083.97945	0.51761
1080.12187	0.47432
1076.26430	0.35529
1072.40672	0.30729
1068.54914	0.30766
1064.69156	0.37600
1060.83398	0.45532
1056.97641	0.41254
1053.11883	0.30219
1049.26125	0.28996
1045.40367	0.09605
1041.54609	0.20369
1037.68852	0.65791
1033.83094	0.64208
1029.97336	0.34400
1026.11578	0.62376
1022.25820	0.75543
1018.40062	-0.24630
1014.54305	0.10273
1010.68547	0.40234
1006.82789	-0.30672
1002.97031	-0.28072
999.11273	-0.01010
995.25516	-0.91998
991.39758	0.27497
987.54000	0.74236
983.68242	1.74252
979.82484	1.74252
975.96727	1.74252
972.10969	3.62591
968.25211	3.62591
964.39453	3.62591
960.53695	0.15896
956.67937	0.79554
952.82180	0.79554
948.96422	0.79554
945.10664	0.79554
941.24906	0.79554
937.39148	-0.62307
933.53391	0.49583
929.67633	2.00343
925.81875	2.00343
921.96117	2.00343
918.10359	10.44290
914.24602	0.19004
910.38844	0.87820
906.53086	0.87820
902.67328	0.87820
898.81570	0.87820
894.95812	0.87820
891.10055	0.74149
887.24297	1.56887
883.38539	0.89623
879.52781	0.49790
875.67023	1.07505
871.81266	1.17617
867.95508	0.69914
864.09750	1.34023
860.23992	0.92443
856.38234	0.36416
852.52477	0.37033
848.66719	0.94882
844.80961	2.19754
840.95203	0.60621
837.09445	0.52540
833.23687	1.21086
829.37930	7.16854
825.52172	1.36352
821.66414	1.03019
817.80656	0.05992
813.94898	-0.25748
810.09141	0.46656
806.23383	0.66594
802.37625	0.66594
798.51867	0.78103
794.66109	0.59799
790.80352	0.92999
786.94594	0.92999
783.08836	0.92999
779.23078	-0.42561
775.37320	0.48318
771.51562	0.48318
767.65805	0.48318
763.80047	0.04839
759.94289	0.07159
756.08531	0.25028
752.22773	0.72445
748.37016	1.28559
744.51258	0.97481
740.65500	-0.38684
736.79742	0.23082
732.93984	1.09611
729.08227	1.09611
725.22469	3.26025
721.36711	0.67940
717.50953	0.69088
713.65195	1.71462
709.79437	1.57314
705.93680	1.11041
702.07922	-7.48513
698.22164	-0.58604
694.36406	0.66694
690.50648	1.34242
686.64891	-1.29600
682.79133	-3.68955
678.93375	0.19286
675.07617	-0.54545
671.21859	0.09210
667.36102	0.78471
663.50344	0.72583
659.64586	0.15407
655.78828	0.15407
651.93070	0.15407
648.07312	0.15407
644.21555	-5.07224
640.35797	-0.15352
636.50039	0.39303
632.64281	1.24168
628.78523	1.72755
624.92766	1.72755
621.07008	1.72755
617.21250	0.09058
613.35492	-0.05003
609.49734	-0.41163
605.63977	0.27728
601.78219	0.00192
597.92461	-0.81962
594.06703	-2.08685
590.20945	-2.08685
586.35187	-2.08685
582.49430	0.29296
578.63672	0.01118
574.77914	0.01118
570.92156	0.01118
567.06398	0.76822
563.20641	-10.59395
559.34883	-10.59395
555.49125	-1.58804
551.63367	-3.99267
547.77609	-3.99267
543.91852	-3.99267
540.06094	1.12212
536.20336	0.53764
532.34578	1.17330
528.48820	1.08379
524.63062	0.67947
520.77305	-0.23573
516.91547	-1.75990
513.05789	-0.80356
509.20031	-0.80356
505.34273	-0.80356
501.48516	0.24573
497.62758	1.00263
493.77000	18.56032
489.91242	18.56032
486.05484	18.56032
482.19727	-0.36484
478.33969	-1.12197
474.48211	-1.12197
470.62453	-1.12197
466.76695	1.70616
462.90937	1.70616
459.05180	1.70616
455.19422	5.35566
451.33664	-0.31525
447.47906	-0.82642
443.62148	0.23773
439.76391	0.23773
435.90633	0.23773
432.04875	0.23773
428.19117	4.57823
424.33359	1.36683
420.47602	3.44348
416.61844	1.85370
412.76086	0.68394
408.90328	0.50599
405.04570	1.21434
401.18812	33.76786
397.33055	33.76786
393.47297	33.76786
389.61539	-0.03241
385.75781	0.22213
381.90023	0.50512
378.04266	1.70350
374.18508	1.70350
370.32750	0.57673
366.46992	-0.39223
362.61234	-0.15194
358.75477	0.54630
354.89719	10.48079
351.03961	10.48079
347.18203	10.48079
343.32445	0.47696
339.46687	-0.41734
335.60930	-0.12548
331.75172	-0.23967
327.89414	0.10495
324.03656	3.26391
320.17898	3.26391
316.32141	3.26391
312.46383	0.49519
308.60625	1.91575
304.74867	2.14459
300.89109	0.56939
