14998.26375	0.45995
14994.40617	0.69108
14990.54859	0.55322
14986.69102	0.39145
14982.83344	0.34461
14978.97586	0.27704
14975.11828	0.28478
14971.26070	0.40562
14967.40312	0.37478
14963.54555	0.15615
14959.68797	-0.02391
14955.83039	-0.11439
14951.97281	-0.16112
14948.11523	0.05743
14944.25766	0.62746
14940.40008	0.66099
14936.54250	0.56951
14932.68492	0.51202
14928.82734	0.15883
14924.96977	0.10564
14921.11219	0.30916
14917.25461	0.34139
14913.39703	0.23809
14909.53945	0.15988
14905.68187	0.34708
14901.82430	0.66383
14897.96672	0.53636
14894.10914	0.36884
14890.25156	0.52466
14886.39398	0.64932
14882.53641	0.68815
14878.67883	0.80408
14874.82125	0.61164
14870.96367	0.28549
14867.10609	0.28644
14863.24852	0.42489
14859.39094	0.35029
14855.53336	0.28144
14851.67578	0.34643
14847.81820	0.40669
14843.96062	0.35177
14840.10305	0.28745
14836.24547	0.34861
14832.38789	0.39458
14828.53031	0.20021
14824.67273	0.14605
14820.81516	0.37233
14816.95758	0.46844
14813.10000	0.54275
14809.24242	0.67811
14805.38484	0.43694
14801.52727	0.14122
14797.66969	0.20162
14793.81211	0.55372
14789.95453	0.86344
14786.09695	0.47110
14782.23937	0.22775
14778.38180	0.40776
14774.52422	0.62839
14770.66664	0.38220
14766.80906	0.29185
14762.95148	0.51119
14759.09391	0.68212
14755.23633	0.53774
14751.37875	0.45997
14747.52117	0.40021
14743.66359	0.29308
14739.80602	0.35018
14735.94844	0.39344
14732.09086	0.25784
14728.23328	0.29084
14724.37570	0.60791
14720.51812	0.62645
14716.66055	0.47499
14712.80297	0.42540
14708.94539	0.29751
14705.08781	0.25193
14701.23023	0.38746
14697.37266	0.52798
14693.51508	0.41250
14689.65750	0.33328
14685.79992	0.36581
14681.94234	0.42417
14678.08477	0.50755
14674.22719	0.40091
14670.36961	0.17429
14666.51203	0.10226
14662.65445	0.18491
14658.79687	0.30659
14654.93930	0.43112
14651.08172	0.46764
14647.22414	0.48856
14643.36656	0.36140
14639.50898	0.08159
14635.65141	0.06103
14631.79383	0.22788
14627.93625	0.33441
14624.07867	0.36582
14620.22109	0.32310
14616.36352	0.25476
14612.50594	0.26636
14608.64836	0.34086
14604.79078	0.33091
14600.93320	0.32136
14597.07562	0.38618
14593.21805	0.41298
14589.36047	0.53952
14585.50289	0.56390
14581.64531	0.36718
14577.78773	0.21382
14573.93016	0.21722
14570.07258	0.33010
14566.21500	0.29854
14562.35742	0.26464
14558.49984	0.33763
14554.64227	0.30946
14550.78469	0.28231
14546.92711	0.37327
14543.06953	0.46701
14539.21195	0.47001
14535.35437	0.37916
14531.49680	0.36728
14527.63922	0.49923
14523.78164	0.46033
14519.92406	0.35478
14516.06648	0.39096
14512.20891	0.54405
14508.35133	0.51914
14504.49375	0.31357
14500.63617	0.25201
14496.77859	0.23600
14492.92102	0.18924
14489.06344	0.21802
14485.20586	0.30026
14481.34828	0.43866
14477.49070	0.45866
14473.63312	0.25905
14469.77555	0.11055
14465.91797	0.11118
14462.06039	0.20236
14458.20281	0.30311
14454.34523	0.39234
14450.48766	0.38742
14446.63008	0.34164
14442.77250	0.40467
14438.91492	0.39456
14435.05734	0.24465
14431.19977	0.26351
14427.34219	0.42433
14423.48461	0.45437
14419.62703	0.35384
14415.76945	0.27133
14411.91187	0.23285
14408.05430	0.26275
14404.19672	0.31798
14400.33914	0.35527
14396.48156	0.38795
14392.62398	0.43250
14388.76641	0.43339
14384.90883	0.41141
14381.05125	0.41902
14377.19367	0.41166
14373.33609	0.32647
14369.47852	0.22146
14365.62094	0.19510
14361.76336	0.26828
14357.90578	0.32242
14354.04820	0.29788
14350.19062	0.35087
14346.33305	0.47365
14342.47547	0.35791
14338.61789	0.30480
14334.76031	0.40125
14330.90273	0.37231
14327.04516	0.38421
14323.18758	0.46784
14319.33000	0.36197
14315.47242	0.24905
14311.61484	0.25370
14307.75727	0.26693
14303.89969	0.25167
14300.04211	0.30068
14296.18453	0.42833
14292.32695	0.43990
14288.46937	0.35162
14284.61180	0.35567
14280.75422	0.39263
14276.89664	0.39492
14273.03906	0.31470
14269.18148	0.34355
14265.32391	0.47377
14261.46633	0.41989
14257.60875	0.38224
14253.75117	0.38365
14249.89359	0.34742
14246.03602	0.43618
14242.17844	0.45382
14238.32086	0.40348
14234.46328	0.34389
14230.60570	0.21808
14226.74812	0.31362
14222.89055	0.41350
14219.03297	0.38790
14215.17539	0.41501
14211.31781	0.36337
14207.46023	0.31865
14203.60266	0.29487
14199.74508	0.26878
14195.88750	0.41590
14192.02992	0.46511
14188.17234	0.36985
14184.31477	0.35902
14180.45719	0.37064
14176.59961	0.43656
14172.74203	0.44737
14168.88445	0.36045
14165.02687	0.35952
14161.16930	0.40914
14157.31172	0.39403
14153.45414	0.33170
14149.59656	0.32133
14145.73898	0.32370
14141.88141	0.30206
14138.02383	0.31423
14134.16625	0.34629
14130.30867	0.36121
14126.45109	0.37543
14122.59352	0.39057
14118.73594	0.35246
14114.87836	0.30585
14111.02078	0.35096
14107.16320	0.33442
14103.30562	0.29412
14099.44805	0.34189
14095.59047	0.33042
14091.73289	0.33638
14087.87531	0.43370
14084.01773	0.48987
14080.16016	0.49478
14076.30258	0.39515
14072.44500	0.29627
14068.58742	0.28467
14064.72984	0.25997
14060.87227	0.27178
14057.01469	0.35588
14053.15711	0.48410
14049.29953	0.54760
14045.44195	0.52428
14041.58437	0.54416
14037.72680	0.48011
14033.86922	0.34505
14030.01164	0.30076
14026.15406	0.28127
14022.29648	0.26627
14018.43891	0.36398
14014.58133	0.48104
14010.72375	0.44606
14006.86617	0.34498
14003.00859	0.30093
13999.15102	0.29100
13995.29344	0.26985
13991.43586	0.26135
13987.57828	0.30958
13983.72070	0.36109
13979.86312	0.34870
13976.00555	0.32820
13972.14797	0.30533
13968.29039	0.26445
13964.43281	0.27331
13960.57523	0.31191
13956.71766	0.36561
13952.86008	0.41059
13949.00250	0.37705
13945.14492	0.37514
13941.28734	0.36496
13937.42977	0.31605
13933.57219	0.32700
13929.71461	0.32498
13925.85703	0.31296
13921.99945	0.40786
13918.14187	0.48384
13914.28430	0.44907
13910.42672	0.36692
13906.56914	0.33902
13902.71156	0.40350
13898.85398	0.45999
13894.99641	0.38132
13891.13883	0.29159
13887.28125	0.30529
13883.42367	0.30182
13879.56609	0.29573
13875.70852	0.32616
13871.85094	0.34188
13867.99336	0.42120
13864.13578	0.43082
13860.27820	0.27118
13856.42062	0.23906
13852.56305	0.30982
13848.70547	0.33737
13844.84789	0.33058
13840.99031	0.30844
13837.13273	0.28523
13833.27516	0.28907
13829.41758	0.30432
13825.56000	0.31005
13821.70242	0.34089
13817.84484	0.33714
13813.98727	0.25543
13810.12969	0.25848
13806.27211	0.38379
13802.41453	0.44796
13798.55695	0.42081
13794.69937	0.36224
13790.84180	0.25256
13786.98422	0.19727
13783.12664	0.29015
13779.26906	0.33062
13775.41148	0.31602
13771.55391	0.34363
13767.69633	0.29646
13763.83875	0.29229
13759.98117	0.34001
13756.12359	0.28807
13752.26602	0.29333
13748.40844	0.34472
13744.55086	0.29644
13740.69328	0.26347
13736.83570	0.31485
13732.97812	0.35742
13729.12055	0.33201
13725.26297	0.33587
13721.40539	0.35432
13717.54781	0.32466
13713.69023	0.30353
13709.83266	0.28197
13705.97508	0.31052
13702.11750	0.38055
13698.25992	0.30378
13694.40234	0.18451
13690.54477	0.21676
13686.68719	0.27341
13682.82961	0.25512
13678.97203	0.25931
13675.11445	0.28142
13671.25687	0.25931
13667.39930	0.26074
13663.54172	0.28925
13659.68414	0.34357
13655.82656	0.41904
13651.96898	0.37670
13648.11141	0.27734
13644.25383	0.28976
13640.39625	0.31819
13636.53867	0.26220
13632.68109	0.22915
13628.82352	0.27077
13624.96594	0.31514
13621.10836	0.31960
13617.25078	0.30807
13613.39320	0.29843
13609.53562	0.32349
13605.67805	0.36450
13601.82047	0.34730
13597.96289	0.33024
13594.10531	0.35679
13590.24773	0.31563
13586.39016	0.24502
13582.53258	0.24962
13578.67500	0.29219
13574.81742	0.33732
13570.95984	0.38516
13567.10227	0.41780
13563.24469	0.40025
13559.38711	0.34267
13555.52953	0.30186
13551.67195	0.32789
13547.81437	0.35016
13543.95680	0.30806
13540.09922	0.29547
13536.24164	0.32905
13532.38406	0.32961
13528.52648	0.34941
13524.66891	0.38310
13520.81133	0.36019
13516.95375	0.30033
13513.09617	0.28897
13509.23859	0.35503
13505.38102	0.39307
13501.52344	0.34101
13497.66586	0.30374
13493.80828	0.35139
13489.95070	0.36227
13486.09312	0.32781
13482.23555	0.30716
13478.37797	0.28408
13474.52039	0.30424
13470.66281	0.33598
13466.80523	0.29671
13462.94766	0.28543
13459.09008	0.30240
13455.23250	0.27055
13451.37492	0.27103
13447.51734	0.31437
13443.65977	0.32360
13439.80219	0.33406
13435.94461	0.35953
13432.08703	0.35849
13428.22945	0.35199
13424.37187	0.36104
13420.51430	0.37463
13416.65672	0.38409
13412.79914	0.37503
13408.94156	0.36425
13405.08398	0.36512
13401.22641	0.34636
13397.36883	0.32205
13393.51125	0.31543
13389.65367	0.31537
13385.79609	0.30443
13381.93852	0.25613
13378.08094	0.24424
13374.22336	0.29834
13370.36578	0.31992
13366.50820	0.30766
13362.65062	0.30593
13358.79305	0.26963
13354.93547	0.26240
13351.07789	0.33157
13347.22031	0.39016
13343.36273	0.39186
13339.50516	0.33897
13335.64758	0.29717
13331.79000	0.30143
13327.93242	0.29820
13324.07484	0.32596
13320.21727	0.35504
13316.35969	0.30801
13312.50211	0.29929
13308.64453	0.34752
13304.78695	0.36322
13300.92937	0.33877
13297.07180	0.31423
13293.21422	0.32737
13289.35664	0.36650
13285.49906	0.34752
13281.64148	0.28551
13277.78391	0.25887
13273.92633	0.24010
13270.06875	0.25292
13266.21117	0.32051
13262.35359	0.34167
13258.49602	0.32852
13254.63844	0.30512
13250.78086	0.27903
13246.92328	0.31961
13243.06570	0.36489
13239.20812	0.31554
13235.35055	0.26746
13231.49297	0.31140
13227.63539	0.34117
13223.77781	0.32039
13219.92023	0.32428
13216.06266	0.33931
13212.20508	0.33548
13208.34750	0.28086
13204.48992	0.23322
13200.63234	0.25730
13196.77477	0.27294
13192.91719	0.30144
13189.05961	0.36513
13185.20203	0.37733
13181.34445	0.34269
13177.48687	0.28186
13173.62930	0.24259
13169.77172	0.27530
13165.91414	0.34135
13162.05656	0.38402
13158.19898	0.38472
13154.34141	0.34537
13150.48383	0.30363
13146.62625	0.30785
13142.76867	0.34713
13138.91109	0.33054
13135.05352	0.27811
13131.19594	0.28315
13127.33836	0.30393
13123.48078	0.29845
13119.62320	0.32549
13115.76562	0.33410
13111.90805	0.32736
13108.05047	0.37604
13104.19289	0.37945
13100.33531	0.34160
13096.47773	0.35153
13092.62016	0.31165
13088.76258	0.25390
13084.90500	0.29374
13081.04742	0.33420
13077.18984	0.31692
13073.33227	0.32075
13069.47469	0.33388
13065.61711	0.34141
13061.75953	0.34202
13057.90195	0.32498
13054.04437	0.31360
13050.18680	0.30817
13046.32922	0.31771
13042.47164	0.34505
13038.61406	0.35476
13034.75648	0.34461
13030.89891	0.34043
13027.04133	0.33894
13023.18375	0.33020
13019.32617	0.32425
13015.46859	0.32760
13011.61102	0.32773
13007.75344	0.32655
13003.89586	0.34370
13000.03828	0.36606
12996.18070	0.36307
12992.32312	0.34536
12988.46555	0.34141
12984.60797	0.37695
12980.75039	0.42467
12976.89281	0.40455
12973.03523	0.33669
12969.17766	0.28575
12965.32008	0.27323
12961.46250	0.30295
12957.60492	0.34797
12953.74734	0.35086
12949.88977	0.35211
12946.03219	0.35995
12942.17461	0.32453
12938.31703	0.31813
12934.45945	0.34812
12930.60187	0.35653
12926.74430	0.36848
12922.88672	0.35830
12919.02914	0.34170
12915.17156	0.36060
12911.31398	0.34930
12907.45641	0.31267
12903.59883	0.32563
12899.74125	0.37008
12895.88367	0.38064
12892.02609	0.39036
12888.16852	0.41873
12884.31094	0.40257
12880.45336	0.35731
12876.59578	0.33313
12872.73820	0.33869
12868.88062	0.33146
12865.02305	0.30556
12861.16547	0.32211
12857.30789	0.34821
12853.45031	0.34351
12849.59273	0.33434
12845.73516	0.30431
12841.87758	0.29079
12838.02000	0.32695
12834.16242	0.36396
12830.30484	0.37777
12826.44727	0.35703
12822.58969	0.34881
12818.73211	0.36942
12814.87453	0.34101
12811.01695	0.32915
12807.15937	0.35605
12803.30180	0.34584
12799.44422	0.35423
12795.58664	0.35088
12791.72906	0.32322
12787.87148	0.34840
12784.01391	0.35568
12780.15633	0.33582
12776.29875	0.34761
12772.44117	0.34865
12768.58359	0.32498
12764.72602	0.30193
12760.86844	0.30624
12757.01086	0.35100
12753.15328	0.35699
12749.29570	0.30449
12745.43812	0.30954
12741.58055	0.33970
12737.72297	0.30817
12733.86539	0.28254
12730.00781	0.29920
12726.15023	0.30450
12722.29266	0.27628
12718.43508	0.28208
12714.57750	0.34731
12710.71992	0.38250
12706.86234	0.36601
12703.00477	0.31831
12699.14719	0.28808
12695.28961	0.31067
12691.43203	0.32302
12687.57445	0.33188
12683.71687	0.33610
12679.85930	0.28517
12676.00172	0.25583
12672.14414	0.29003
12668.28656	0.31540
12664.42898	0.33461
12660.57141	0.35893
12656.71383	0.33784
12652.85625	0.31654
12648.99867	0.32714
12645.14109	0.31621
12641.28352	0.30893
12637.42594	0.33614
12633.56836	0.35970
12629.71078	0.34993
12625.85320	0.31033
12621.99562	0.29907
12618.13805	0.33780
12614.28047	0.33839
12610.42289	0.31162
12606.56531	0.32017
12602.70773	0.29407
12598.85016	0.24853
12594.99258	0.26850
12591.13500	0.30705
12587.27742	0.31624
12583.41984	0.31488
12579.56227	0.31558
12575.70469	0.31534
12571.84711	0.30747
12567.98953	0.28453
12564.13195	0.26951
12560.27437	0.28959
12556.41680	0.31613
12552.55922	0.33004
12548.70164	0.33918
12544.84406	0.33273
12540.98648	0.32374
12537.12891	0.31425
12533.27133	0.29130
12529.41375	0.28173
12525.55617	0.28309
12521.69859	0.28059
12517.84102	0.30338
12513.98344	0.33552
12510.12586	0.33152
12506.26828	0.29731
12502.41070	0.29318
12498.55312	0.32723
12494.69555	0.33685
12490.83797	0.31957
12486.98039	0.29870
12483.12281	0.27486
12479.26523	0.28271
12475.40766	0.32849
12471.55008	0.34324
12467.69250	0.31761
12463.83492	0.31530
12459.97734	0.32177
12456.11977	0.32183
12452.26219	0.33420
12448.40461	0.34080
12444.54703	0.30833
12440.68945	0.25724
12436.83187	0.26539
12432.97430	0.30505
12429.11672	0.31570
12425.25914	0.33756
12421.40156	0.33707
12417.54398	0.30277
12413.68641	0.31334
12409.82883	0.34650
12405.97125	0.34195
12402.11367	0.31887
12398.25609	0.30437
12394.39852	0.30531
12390.54094	0.29307
12386.68336	0.27171
12382.82578	0.29861
12378.96820	0.33020
12375.11062	0.32334
12371.25305	0.31362
12367.39547	0.29607
12363.53789	0.29902
12359.68031	0.31499
12355.82273	0.30790
12351.96516	0.33117
12348.10758	0.33812
12344.25000	0.28917
12340.39242	0.26441
12336.53484	0.28704
12332.67727	0.33989
12328.81969	0.33882
12324.96211	0.29423
12321.10453	0.29897
12317.24695	0.31637
12313.38937	0.33882
12309.53180	0.35135
12305.67422	0.31506
12301.81664	0.31662
12297.95906	0.32966
12294.10148	0.29167
12290.24391	0.29034
12286.38633	0.32641
12282.52875	0.32729
12278.67117	0.31597
12274.81359	0.31064
12270.95602	0.28486
12267.09844	0.26575
12263.24086	0.27941
12259.38328	0.28821
12255.52570	0.28433
12251.66812	0.29033
12247.81055	0.32258
12243.95297	0.34193
12240.09539	0.30860
12236.23781	0.30628
12232.38023	0.32723
12228.52266	0.30494
12224.66508	0.30494
12220.80750	0.32108
12216.94992	0.31360
12213.09234	0.30712
12209.23477	0.31775
12205.37719	0.32919
12201.51961	0.30847
12197.66203	0.30414
12193.80445	0.32651
12189.94687	0.33228
12186.08930	0.35357
12182.23172	0.34862
12178.37414	0.30990
12174.51656	0.31250
12170.65898	0.31601
12166.80141	0.28492
12162.94383	0.27447
12159.08625	0.31262
12155.22867	0.35037
12151.37109	0.33252
12147.51352	0.30375
12143.65594	0.30389
12139.79836	0.30227
12135.94078	0.29685
12132.08320	0.29177
12128.22562	0.27371
12124.36805	0.28182
12120.51047	0.30786
12116.65289	0.32395
12112.79531	0.34102
12108.93773	0.32242
12105.08016	0.28965
12101.22258	0.30110
12097.36500	0.31167
12093.50742	0.31189
12089.64984	0.32244
12085.79227	0.31914
12081.93469	0.31822
12078.07711	0.33821
12074.21953	0.32418
12070.36195	0.28475
12066.50437	0.27585
12062.64680	0.27621
12058.78922	0.29102
12054.93164	0.30943
12051.07406	0.29210
12047.21648	0.28561
12043.35891	0.31380
12039.50133	0.31912
12035.64375	0.29330
12031.78617	0.29479
12027.92859	0.30773
12024.07102	0.29882
12020.21344	0.30300
12016.35586	0.32207
12012.49828	0.33822
12008.64070	0.34549
12004.78312	0.33260
12000.92555	0.32129
11997.06797	0.31627
11993.21039	0.30259
11989.35281	0.29168
11985.49523	0.28919
11981.63766	0.29650
11977.78008	0.31791
11973.92250	0.32562
11970.06492	0.31611
11966.20734	0.30522
11962.34977	0.28946
11958.49219	0.28882
11954.63461	0.28576
11950.77703	0.28110
11946.91945	0.30469
11943.06187	0.30045
11939.20430	0.28813
11935.34672	0.32005
11931.48914	0.33894
11927.63156	0.32690
11923.77398	0.30921
11919.91641	0.30366
11916.05883	0.31507
11912.20125	0.30886
11908.34367	0.30744
11904.48609	0.32281
11900.62852	0.32200
11896.77094	0.33170
11892.91336	0.34413
11889.05578	0.32098
11885.19820	0.31090
11881.34062	0.33228
11877.48305	0.33503
11873.62547	0.31646
11869.76789	0.29142
11865.91031	0.26525
11862.05273	0.27665
11858.19516	0.30902
11854.33758	0.31206
11850.48000	0.31273
11846.62242	0.32264
11842.76484	0.32522
11838.90727	0.31961
11835.04969	0.30603
11831.19211	0.30427
11827.33453	0.30765
11823.47695	0.30810
11819.61937	0.31697
11815.76180	0.31234
11811.90422	0.30670
11808.04664	0.31979
11804.18906	0.31944
11800.33148	0.29775
11796.47391	0.27146
11792.61633	0.27231
11788.75875	0.31303
11784.90117	0.33225
11781.04359	0.31270
11777.18602	0.30465
11773.32844	0.30809
11769.47086	0.32169
11765.61328	0.33715
11761.75570	0.31269
11757.89812	0.29050
11754.04055	0.30215
11750.18297	0.30028
11746.32539	0.28512
11742.46781	0.29299
11738.61023	0.31268
11734.75266	0.31895
11730.89508	0.30936
11727.03750	0.31019
11723.17992	0.31880
11719.32234	0.31677
11715.46477	0.32690
11711.60719	0.31767
11707.74961	0.27780
11703.89203	0.28336
11700.03445	0.31829
11696.17687	0.32512
11692.31930	0.31519
11688.46172	0.30657
11684.60414	0.29581
11680.74656	0.27342
11676.88898	0.28066
11673.03141	0.31610
11669.17383	0.31620
11665.31625	0.30573
11661.45867	0.30694
11657.60109	0.30227
11653.74352	0.29996
11649.88594	0.28263
11646.02836	0.26713
11642.17078	0.29211
11638.31320	0.32029
11634.45562	0.31781
11630.59805	0.30608
11626.74047	0.29841
11622.88289	0.29453
11619.02531	0.29539
11615.16773	0.28693
11611.31016	0.27001
11607.45258	0.28047
11603.59500	0.30446
11599.73742	0.30162
11595.87984	0.29106
11592.02227	0.28872
11588.16469	0.29755
11584.30711	0.31024
11580.44953	0.30056
11576.59195	0.29776
11572.73437	0.31591
11568.87680	0.31635
11565.01922	0.29696
11561.16164	0.28834
11557.30406	0.29989
11553.44648	0.29119
11549.58891	0.26846
11545.73133	0.28121
11541.87375	0.29792
11538.01617	0.29734
11534.15859	0.29537
11530.30102	0.29528
11526.44344	0.30529
11522.58586	0.31090
11518.72828	0.31751
11514.87070	0.32401
11511.01312	0.30877
11507.15555	0.29461
11503.29797	0.28047
11499.44039	0.26917
11495.58281	0.29005
11491.72523	0.30425
11487.86766	0.29116
11484.01008	0.30039
11480.15250	0.31958
11476.29492	0.30864
11472.43734	0.29895
11468.57977	0.29731
11464.72219	0.28804
11460.86461	0.27580
11457.00703	0.27779
11453.14945	0.29941
11449.29187	0.30300
11445.43430	0.30555
11441.57672	0.31849
11437.71914	0.31057
11433.86156	0.30602
11430.00398	0.30383
11426.14641	0.29896
11422.28883	0.30141
11418.43125	0.30066
11414.57367	0.30829
11410.71609	0.30939
11406.85852	0.30994
11403.00094	0.31901
11399.14336	0.30698
11395.28578	0.29774
11391.42820	0.30784
11387.57062	0.32169
11383.71305	0.32379
11379.85547	0.30343
11375.99789	0.28711
11372.14031	0.28674
11368.28273	0.29518
11364.42516	0.29375
11360.56758	0.27501
11356.71000	0.29306
11352.85242	0.32678
11348.99484	0.31387
11345.13727	0.29553
11341.27969	0.28900
11337.42211	0.28920
11333.56453	0.30295
11329.70695	0.30362
11325.84937	0.30596
11321.99180	0.30476
11318.13422	0.28094
11314.27664	0.27899
11310.41906	0.29134
11306.56148	0.29184
11302.70391	0.29854
11298.84633	0.31874
11294.98875	0.33243
11291.13117	0.30983
11287.27359	0.28132
11283.41602	0.28537
11279.55844	0.29806
11275.70086	0.29467
11271.84328	0.29673
11267.98570	0.31103
11264.12812	0.31328
11260.27055	0.31436
11256.41297	0.31200
11252.55539	0.29228
11248.69781	0.29451
11244.84023	0.31176
11240.98266	0.31670
11237.12508	0.32153
11233.26750	0.31825
11229.40992	0.31105
11225.55234	0.30666
11221.69477	0.30023
11217.83719	0.30225
11213.97961	0.30118
11210.12203	0.29726
11206.26445	0.30421
11202.40687	0.30244
11198.54930	0.29080
11194.69172	0.28840
11190.83414	0.30103
11186.97656	0.31332
11183.11898	0.30471
11179.26141	0.29389
11175.40383	0.29826
11171.54625	0.30119
11167.68867	0.30496
11163.83109	0.30964
11159.97352	0.29603
11156.11594	0.29027
11152.25836	0.30838
11148.40078	0.30866
11144.54320	0.30101
11140.68562	0.30698
11136.82805	0.29906
11132.97047	0.28806
11129.11289	0.29848
11125.25531	0.30523
11121.39773	0.29126
11117.54016	0.29107
11113.68258	0.31647
11109.82500	0.32620
11105.96742	0.30659
11102.10984	0.29178
11098.25227	0.30145
11094.39469	0.30932
11090.53711	0.29642
11086.67953	0.29058
11082.82195	0.29775
11078.96437	0.29379
11075.10680	0.29039
11071.24922	0.30338
11067.39164	0.31536
11063.53406	0.31628
11059.67648	0.31084
11055.81891	0.30576
11051.96133	0.31038
11048.10375	0.32178
11044.24617	0.33031
11040.38859	0.33204
11036.53102	0.32575
11032.67344	0.31574
11028.81586	0.31419
11024.95828	0.31461
11021.10070	0.30567
11017.24312	0.30684
11013.38555	0.31535
11009.52797	0.31636
11005.67039	0.32325
11001.81281	0.33150
10997.95523	0.33120
10994.09766	0.32794
10990.24008	0.33292
10986.38250	0.34765
10982.52492	0.34529
10978.66734	0.32493
10974.80977	0.31613
10970.95219	0.32276
10967.09461	0.33129
10963.23703	0.34171
10959.37945	0.34990
10955.52187	0.34257
10951.66430	0.32520
10947.80672	0.31308
10943.94914	0.31197
10940.09156	0.31428
10936.23398	0.31984
10932.37641	0.33900
10928.51883	0.34939
10924.66125	0.33675
10920.80367	0.33336
10916.94609	0.34553
10913.08852	0.34788
10909.23094	0.34439
10905.37336	0.35144
10901.51578	0.36294
10897.65820	0.36548
10893.80062	0.35723
10889.94305	0.34887
10886.08547	0.34314
10882.22789	0.33733
10878.37031	0.33603
10874.51273	0.33599
10870.65516	0.33758
10866.79758	0.34640
10862.94000	0.35722
10859.08242	0.36985
10855.22484	0.36990
10851.36727	0.35171
10847.50969	0.34517
10843.65211	0.35196
10839.79453	0.35972
10835.93695	0.36561
10832.07937	0.36153
10828.22180	0.35686
10824.36422	0.35180
10820.50664	0.34799
10816.64906	0.35463
10812.79148	0.35691
10808.93391	0.35066
10805.07633	0.34288
10801.21875	0.34431
10797.36117	0.35567
10793.50359	0.35336
10789.64602	0.34488
10785.78844	0.34801
10781.93086	0.35213
10778.07328	0.35184
10774.21570	0.35332
10770.35812	0.36111
10766.50055	0.36683
10762.64297	0.36243
10758.78539	0.35679
10754.92781	0.35343
10751.07023	0.34582
10747.21266	0.35126
10743.35508	0.37590
10739.49750	0.38265
10735.63992	0.37077
10731.78234	0.36522
10727.92477	0.36183
10724.06719	0.36269
10720.20961	0.36417
10716.35203	0.36283
10712.49445	0.36287
10708.63687	0.35888
10704.77930	0.35939
10700.92172	0.36351
10697.06414	0.36575
10693.20656	0.37480
10689.34898	0.37616
10685.49141	0.35853
10681.63383	0.34423
10677.77625	0.34856
10673.91867	0.35418
10670.06109	0.35050
10666.20352	0.35653
10662.34594	0.36463
10658.48836	0.36354
10654.63078	0.36785
10650.77320	0.36798
10646.91562	0.36398
10643.05805	0.35885
10639.20047	0.34367
10635.34289	0.34238
10631.48531	0.35047
10627.62773	0.35352
10623.77016	0.36332
10619.91258	0.36122
10616.05500	0.35396
10612.19742	0.35850
10608.33984	0.35684
10604.48227	0.36008
10600.62469	0.37479
10596.76711	0.37307
10592.90953	0.36165
10589.05195	0.35949
10585.19437	0.35534
10581.33680	0.35409
10577.47922	0.36748
10573.62164	0.37522
10569.76406	0.36900
10565.90648	0.37198
10562.04891	0.38044
10558.19133	0.37483
10554.33375	0.37092
10550.47617	0.37570
10546.61859	0.38034
10542.76102	0.38262
10538.90344	0.37467
10535.04586	0.36937
10531.18828	0.37032
10527.33070	0.36607
10523.47312	0.36630
10519.61555	0.37088
10515.75797	0.37186
10511.90039	0.36867
10508.04281	0.37615
10504.18523	0.38960
10500.32766	0.38285
10496.47008	0.37236
10492.61250	0.37160
10488.75492	0.37544
10484.89734	0.38129
10481.03977	0.37154
10477.18219	0.36299
10473.32461	0.36793
10469.46703	0.36754
10465.60945	0.37460
10461.75187	0.38654
10457.89430	0.38355
10454.03672	0.38173
10450.17914	0.38607
10446.32156	0.38352
10442.46398	0.37738
10438.60641	0.37542
10434.74883	0.37469
10430.89125	0.36685
10427.03367	0.36220
10423.17609	0.37094
10419.31852	0.37606
10415.46094	0.37058
10411.60336	0.36827
10407.74578	0.37303
10403.88820	0.37800
10400.03062	0.37985
10396.17305	0.37922
10392.31547	0.37868
10388.45789	0.37817
10384.60031	0.37460
10380.74273	0.36928
10376.88516	0.36649
10373.02758	0.36992
10369.17000	0.37524
10365.31242	0.37636
10361.45484	0.37617
10357.59727	0.37817
10353.73969	0.38548
10349.88211	0.39020
10346.02453	0.38221
10342.16695	0.37657
10338.30937	0.37877
10334.45180	0.37350
10330.59422	0.36484
10326.73664	0.36303
10322.87906	0.36834
10319.02148	0.38071
10315.16391	0.38582
10311.30633	0.37753
10307.44875	0.37181
10303.59117	0.37293
10299.73359	0.37924
10295.87602	0.38092
10292.01844	0.37267
10288.16086	0.37077
10284.30328	0.37006
10280.44570	0.36399
10276.58812	0.36767
10272.73055	0.37611
10268.87297	0.37785
10265.01539	0.37681
10261.15781	0.37594
10257.30023	0.37627
10253.44266	0.38124
10249.58508	0.38804
10245.72750	0.38791
10241.86992	0.38154
10238.01234	0.37806
10234.15477	0.37789
10230.29719	0.38123
10226.43961	0.38865
10222.58203	0.39086
10218.72445	0.39062
10214.86687	0.39465
10211.00930	0.39484
10207.15172	0.39121
10203.29414	0.38910
10199.43656	0.38671
10195.57898	0.38298
10191.72141	0.37983
10187.86383	0.38073
10184.00625	0.38389
10180.14867	0.38703
10176.29109	0.39297
10172.43352	0.39424
10168.57594	0.38496
10164.71836	0.37652
10160.86078	0.37653
10157.00320	0.38310
10153.14562	0.38852
10149.28805	0.38764
10145.43047	0.38582
10141.57289	0.38522
10137.71531	0.38643
10133.85773	0.38268
10130.00016	0.37280
10126.14258	0.37748
10122.28500	0.39240
10118.42742	0.39848
10114.56984	0.39770
10110.71227	0.39348
10106.85469	0.38961
10102.99711	0.38554
10099.13953	0.38608
10095.28195	0.39480
10091.42437	0.39349
10087.56680	0.38734
10083.70922	0.39371
10079.85164	0.39813
10075.99406	0.39155
10072.13648	0.38608
10068.27891	0.38826
10064.42133	0.38659
10060.56375	0.37916
10056.70617	0.38507
10052.84859	0.39477
10048.99102	0.39243
10045.13344	0.39350
10041.27586	0.39996
10037.41828	0.39839
10033.56070	0.39057
10029.70312	0.38595
10025.84555	0.38979
10021.98797	0.39807
10018.13039	0.39868
10014.27281	0.39112
10010.41523	0.39012
10006.55766	0.39182
10002.70008	0.38898
9998.84250	0.39014
9994.98492	0.38732
9991.12734	0.38037
9987.26977	0.38215
9983.41219	0.38414
9979.55461	0.38410
9975.69703	0.39433
9971.83945	0.40305
9967.98187	0.39314
9964.12430	0.38443
9960.26672	0.38942
9956.40914	0.39233
9952.55156	0.39143
9948.69398	0.39226
9944.83641	0.39531
9940.97883	0.39800
9937.12125	0.39605
9933.26367	0.39225
9929.40609	0.38945
9925.54852	0.39131
9921.69094	0.39281
9917.83336	0.38736
9913.97578	0.38681
9910.11820	0.39311
9906.26062	0.39337
9902.40305	0.38704
9898.54547	0.38438
9894.68789	0.38980
9890.83031	0.39328
9886.97273	0.38797
9883.11516	0.38530
9879.25758	0.38943
9875.40000	0.38947
9871.54242	0.38954
9867.68484	0.39277
9863.82727	0.38866
9859.96969	0.38895
9856.11211	0.39539
9852.25453	0.38910
9848.39695	0.38519
9844.53937	0.39028
9840.68180	0.38972
9836.82422	0.39305
9832.96664	0.39716
9829.10906	0.39285
9825.25148	0.39092
9821.39391	0.39170
9817.53633	0.39203
9813.67875	0.38927
9809.82117	0.38816
9805.96359	0.39629
9802.10602	0.39561
9798.24844	0.38598
9794.39086	0.38721
9790.53328	0.39052
9786.67570	0.38924
9782.81812	0.38742
9778.96055	0.38618
9775.10297	0.39412
9771.24539	0.40279
9767.38781	0.39901
9763.53023	0.39522
9759.67266	0.39144
9755.81508	0.38482
9751.95750	0.39305
9748.09992	0.40588
9744.24234	0.40102
9740.38477	0.39147
9736.52719	0.38837
9732.66961	0.38696
9728.81203	0.39156
9724.95445	0.39860
9721.09687	0.39789
9717.23930	0.39497
9713.38172	0.39156
9709.52414	0.39056
9705.66656	0.39665
9701.80898	0.39422
9697.95141	0.38422
9694.09383	0.38147
9690.23625	0.38314
9686.37867	0.38752
9682.52109	0.38896
9678.66352	0.38495
9674.80594	0.38487
9670.94836	0.38673
9667.09078	0.38741
9663.23320	0.38939
9659.37562	0.39224
9655.51805	0.39614
9651.66047	0.39782
9647.80289	0.39462
9643.94531	0.39150
9640.08773	0.39224
9636.23016	0.39408
9632.37258	0.39598
9628.51500	0.39862
9624.65742	0.39874
9620.79984	0.39665
9616.94227	0.39664
9613.08469	0.39609
9609.22711	0.39193
9605.36953	0.39182
9601.51195	0.39834
9597.65437	0.39884
9593.79680	0.39154
9589.93922	0.39278
9586.08164	0.39981
9582.22406	0.39326
9578.36648	0.38618
9574.50891	0.39524
9570.65133	0.40206
9566.79375	0.39935
9562.93617	0.39642
9559.07859	0.39370
9555.22102	0.39253
9551.36344	0.39203
9547.50586	0.39000
9543.64828	0.38879
9539.79070	0.39252
9535.93312	0.40105
9532.07555	0.40199
9528.21797	0.39490
9524.36039	0.39516
9520.50281	0.39858
9516.64523	0.39774
9512.78766	0.40053
9508.93008	0.40096
9505.07250	0.39507
9501.21492	0.39721
9497.35734	0.40482
9493.49977	0.40379
9489.64219	0.39614
9485.78461	0.39428
9481.92703	0.40139
9478.06945	0.40537
9474.21187	0.40258
9470.35430	0.40101
9466.49672	0.40078
9462.63914	0.40013
9458.78156	0.40104
9454.92398	0.40153
9451.06641	0.40022
9447.20883	0.40218
9443.35125	0.40570
9439.49367	0.40240
9435.63609	0.39668
9431.77852	0.39450
9427.92094	0.39450
9424.06336	0.39889
9420.20578	0.40217
9416.34820	0.39792
9412.49062	0.39613
9408.63305	0.40053
9404.77547	0.40059
9400.91789	0.39528
9397.06031	0.39469
9393.20273	0.39914
9389.34516	0.39934
9385.48758	0.39660
9381.63000	0.39673
9377.77242	0.39717
9373.91484	0.39514
9370.05727	0.39282
9366.19969	0.39346
9362.34211	0.39384
9358.48453	0.39205
9354.62695	0.39407
9350.76937	0.39774
9346.91180	0.39902
9343.05422	0.40041
9339.19664	0.39925
9335.33906	0.39644
9331.48148	0.39759
9327.62391	0.39918
9323.76633	0.39714
9319.90875	0.39550
9316.05117	0.39990
9312.19359	0.40526
9308.33602	0.40151
9304.47844	0.39630
9300.62086	0.39914
9296.76328	0.40208
9292.90570	0.40232
9289.04812	0.40163
9285.19055	0.39941
9281.33297	0.39969
9277.47539	0.39981
9273.61781	0.39934
9269.76023	0.40070
9265.90266	0.39927
9262.04508	0.39987
9258.18750	0.40344
9254.32992	0.40067
9250.47234	0.39529
9246.61477	0.39536
9242.75719	0.40044
9238.89961	0.40295
9235.04203	0.40087
9231.18445	0.40019
9227.32687	0.39996
9223.46930	0.40027
9219.61172	0.40258
9215.75414	0.40094
9211.89656	0.39683
9208.03898	0.39691
9204.18141	0.39916
9200.32383	0.39793
9196.46625	0.39511
9192.60867	0.39633
9188.75109	0.39926
9184.89352	0.40330
9181.03594	0.40859
9177.17836	0.40689
9173.32078	0.40029
9169.46320	0.39904
9165.60562	0.40228
9161.74805	0.40242
9157.89047	0.39779
9154.03289	0.39461
9150.17531	0.39530
9146.31773	0.39530
9142.46016	0.39332
9138.60258	0.39372
9134.74500	0.39675
9130.88742	0.39935
9127.02984	0.40213
9123.17227	0.40098
9119.31469	0.39623
9115.45711	0.39658
9111.59953	0.39856
9107.74195	0.39700
9103.88437	0.39636
9100.02680	0.39788
9096.16922	0.39786
9092.31164	0.39741
9088.45406	0.40084
9084.59648	0.40310
9080.73891	0.39983
9076.88133	0.39788
9073.02375	0.39927
9069.16617	0.39942
9065.30859	0.39752
9061.45102	0.39653
9057.59344	0.39768
9053.73586	0.39881
9049.87828	0.39930
9046.02070	0.39871
9042.16312	0.39676
9038.30555	0.39623
9034.44797	0.39668
9030.59039	0.39802
9026.73281	0.40138
9022.87523	0.40210
9019.01766	0.40004
9015.16008	0.40126
9011.30250	0.40326
9007.44492	0.39967
9003.58734	0.39534
8999.72977	0.39607
8995.87219	0.39849
8992.01461	0.39926
8988.15703	0.39752
8984.29945	0.39709
8980.44187	0.39908
8976.58430	0.39873
8972.72672	0.39900
8968.86914	0.40070
8965.01156	0.40106
8961.15398	0.40296
8957.29641	0.40397
8953.43883	0.40063
8949.58125	0.39604
8945.72367	0.39432
8941.86609	0.39676
8938.00852	0.39945
8934.15094	0.39949
8930.29336	0.39845
8926.43578	0.39810
8922.57820	0.39925
8918.72062	0.40074
8914.86305	0.40137
8911.00547	0.40143
8907.14789	0.40117
8903.29031	0.39957
8899.43273	0.39727
8895.57516	0.39849
8891.71758	0.40059
8887.86000	0.39898
8884.00242	0.39892
8880.14484	0.40177
8876.28727	0.40186
8872.42969	0.39816
8868.57211	0.39471
8864.71453	0.39608
8860.85695	0.39970
8856.99937	0.40056
8853.14180	0.39973
8849.28422	0.39978
8845.42664	0.39975
8841.56906	0.39886
8837.71148	0.39966
8833.85391	0.40124
8829.99633	0.40114
8826.13875	0.40054
8822.28117	0.39927
8818.42359	0.39858
8814.56602	0.39946
8810.70844	0.39870
8806.85086	0.39655
8802.99328	0.39488
8799.13570	0.39395
8795.27812	0.39480
8791.42055	0.39595
8787.56297	0.39538
8783.70539	0.39600
8779.84781	0.39842
8775.99023	0.39746
8772.13266	0.39467
8768.27508	0.39592
8764.41750	0.39869
8760.55992	0.39840
8756.70234	0.39633
8752.84477	0.39552
8748.98719	0.39623
8745.12961	0.39746
8741.27203	0.39826
8737.41445	0.39817
8733.55687	0.39820
8729.69930	0.39830
8725.84172	0.39859
8721.98414	0.39792
8718.12656	0.39627
8714.26898	0.39718
8710.41141	0.39827
8706.55383	0.39759
8702.69625	0.39724
8698.83867	0.39623
8694.98109	0.39432
8691.12352	0.39227
8687.26594	0.39277
8683.40836	0.39629
8679.55078	0.39821
8675.69320	0.39771
8671.83562	0.39623
8667.97805	0.39576
8664.12047	0.39727
8660.26289	0.39728
8656.40531	0.39491
8652.54773	0.39370
8648.69016	0.39575
8644.83258	0.39817
8640.97500	0.39729
8637.11742	0.39552
8633.25984	0.39543
8629.40227	0.39579
8625.54469	0.39692
8621.68711	0.39786
8617.82953	0.39645
8613.97195	0.39434
8610.11437	0.39405
8606.25680	0.39544
8602.39922	0.39609
8598.54164	0.39536
8594.68406	0.39527
8590.82648	0.39557
8586.96891	0.39451
8583.11133	0.39260
8579.25375	0.39164
8575.39617	0.39229
8571.53859	0.39316
8567.68102	0.39213
8563.82344	0.39104
8559.96586	0.39198
8556.10828	0.39259
8552.25070	0.39420
8548.39312	0.39800
8544.53555	0.39868
8540.67797	0.39576
8536.82039	0.39329
8532.96281	0.39187
8529.10523	0.39147
8525.24766	0.39255
8521.39008	0.39382
8517.53250	0.39374
8513.67492	0.39405
8509.81734	0.39488
8505.95977	0.39286
8502.10219	0.39080
8498.24461	0.39157
8494.38703	0.39219
8490.52945	0.39226
8486.67187	0.39146
8482.81430	0.39213
8478.95672	0.39522
8475.09914	0.39521
8471.24156	0.39457
8467.38398	0.39464
8463.52641	0.39179
8459.66883	0.38958
8455.81125	0.39008
8451.95367	0.39398
8448.09609	0.39847
8444.23852	0.39613
8440.38094	0.39182
8436.52336	0.39217
8432.66578	0.39210
8428.80820	0.39036
8424.95062	0.39081
8421.09305	0.39202
8417.23547	0.39228
8413.37789	0.39142
8409.52031	0.38972
8405.66273	0.38992
8401.80516	0.39090
8397.94758	0.38921
8394.09000	0.38746
8390.23242	0.38791
8386.37484	0.38879
8382.51727	0.39074
8378.65969	0.39209
8374.80211	0.39050
8370.94453	0.39030
8367.08695	0.39173
8363.22937	0.39128
8359.37180	0.39007
8355.51422	0.38899
8351.65664	0.38875
8347.79906	0.39017
8343.94148	0.39235
8340.08391	0.39299
8336.22633	0.38965
8332.36875	0.38625
8328.51117	0.38780
8324.65359	0.38962
8320.79602	0.38738
8316.93844	0.38570
8313.08086	0.38668
8309.22328	0.38833
8305.36570	0.38941
8301.50812	0.38819
8297.65055	0.38688
8293.79297	0.38746
8289.93539	0.38770
8286.07781	0.38741
8282.22023	0.38763
8278.36266	0.38833
8274.50508	0.38810
8270.64750	0.38656
8266.78992	0.38670
8262.93234	0.38890
8259.07477	0.38978
8255.21719	0.38819
8251.35961	0.38632
8247.50203	0.38652
8243.64445	0.38758
8239.78687	0.38776
8235.92930	0.38805
8232.07172	0.38780
8228.21414	0.38659
8224.35656	0.38632
8220.49898	0.38673
8216.64141	0.38745
8212.78383	0.38790
8208.92625	0.38679
8205.06867	0.38599
8201.21109	0.38667
8197.35352	0.38634
8193.49594	0.38560
8189.63836	0.38688
8185.78078	0.38772
8181.92320	0.38706
8178.06562	0.38693
8174.20805	0.38658
8170.35047	0.38537
8166.49289	0.38463
8162.63531	0.38563
8158.77773	0.38716
8154.92016	0.38701
8151.06258	0.38589
8147.20500	0.38571
8143.34742	0.38627
8139.48984	0.38628
8135.63227	0.38677
8131.77469	0.38763
8127.91711	0.38693
8124.05953	0.38493
8120.20195	0.38381
8116.34437	0.38520
8112.48680	0.38610
8108.62922	0.38505
8104.77164	0.38468
8100.91406	0.38490
8097.05648	0.38498
8093.19891	0.38458
8089.34133	0.38399
8085.48375	0.38301
8081.62617	0.38187
8077.76859	0.38290
8073.91102	0.38437
8070.05344	0.38461
8066.19586	0.38500
8062.33828	0.38527
8058.48070	0.38434
8054.62312	0.38281
8050.76555	0.38298
8046.90797	0.38384
8043.05039	0.38355
8039.19281	0.38368
8035.33523	0.38445
8031.47766	0.38457
8027.62008	0.38446
8023.76250	0.38499
8019.90492	0.38433
8016.04734	0.38314
8012.18977	0.38330
8008.33219	0.38197
8004.47461	0.38057
8000.61703	0.38155
7996.75945	0.38190
7992.90187	0.38169
7989.04430	0.38274
7985.18672	0.38470
7981.32914	0.38539
7977.47156	0.38349
7973.61398	0.38172
7969.75641	0.38204
7965.89883	0.38304
7962.04125	0.38270
7958.18367	0.38167
7954.32609	0.38190
7950.46852	0.38239
7946.61094	0.38173
7942.75336	0.38173
7938.89578	0.38256
7935.03820	0.38169
7931.18062	0.38070
7927.32305	0.38134
7923.46547	0.38192
7919.60789	0.38147
7915.75031	0.37999
7911.89273	0.37992
7908.03516	0.38088
7904.17758	0.38099
7900.32000	0.38229
7896.46242	0.38236
7892.60484	0.38007
7888.74727	0.37963
7884.88969	0.38050
7881.03211	0.38079
7877.17453	0.38066
7873.31695	0.37997
7869.45937	0.37975
7865.60180	0.38082
7861.74422	0.38140
7857.88664	0.38049
7854.02906	0.37958
7850.17148	0.38030
7846.31391	0.38248
7842.45633	0.38337
7838.59875	0.38239
7834.74117	0.38133
7830.88359	0.38007
7827.02602	0.37878
7823.16844	0.37769
7819.31086	0.37772
7815.45328	0.37956
7811.59570	0.38065
7807.73812	0.38022
7803.88055	0.37951
7800.02297	0.37935
7796.16539	0.38074
7792.30781	0.38135
7788.45023	0.37930
7784.59266	0.37706
7780.73508	0.37707
7776.87750	0.37896
7773.01992	0.37968
7769.16234	0.37870
7765.30477	0.37885
7761.44719	0.37949
7757.58961	0.37933
7753.73203	0.37991
7749.87445	0.38045
7746.01687	0.37872
7742.15930	0.37699
7738.30172	0.37834
7734.44414	0.37991
7730.58656	0.37961
7726.72898	0.37978
7722.87141	0.37927
7719.01383	0.37697
7715.15625	0.37641
7711.29867	0.37803
7707.44109	0.37898
7703.58352	0.37918
7699.72594	0.37946
7695.86836	0.37864
7692.01078	0.37731
7688.15320	0.37748
7684.29562	0.37759
7680.43805	0.37644
7676.58047	0.37612
7672.72289	0.37656
7668.86531	0.37655
7665.00773	0.37739
7661.15016	0.37877
7657.29258	0.37930
7653.43500	0.37938
7649.57742	0.37772
7645.71984	0.37550
7641.86227	0.37641
7638.00469	0.37804
7634.14711	0.37811
7630.28953	0.37724
7626.43195	0.37611
7622.57437	0.37778
7618.71680	0.37904
7614.85922	0.37661
7611.00164	0.37613
7607.14406	0.37740
7603.28648	0.37628
7599.42891	0.37472
7595.57133	0.37500
7591.71375	0.37613
7587.85617	0.37595
7583.99859	0.37574
7580.14102	0.37665
7576.28344	0.37655
7572.42586	0.37605
7568.56828	0.37626
7564.71070	0.37618
7560.85312	0.37543
7556.99555	0.37555
7553.13797	0.37698
7549.28039	0.37721
7545.42281	0.37643
7541.56523	0.37571
7537.70766	0.37476
7533.85008	0.37503
7529.99250	0.37552
7526.13492	0.37496
7522.27734	0.37530
7518.41977	0.37664
7514.56219	0.37704
7510.70461	0.37639
7506.84703	0.37587
7502.98945	0.37521
7499.13187	0.37445
7495.27430	0.37466
7491.41672	0.37523
7487.55914	0.37529
7483.70156	0.37498
7479.84398	0.37469
7475.98641	0.37430
7472.12883	0.37353
7468.27125	0.37356
7464.41367	0.37433
7460.55609	0.37454
7456.69852	0.37502
7452.84094	0.37551
7448.98336	0.37477
7445.12578	0.37364
7441.26820	0.37266
7437.41062	0.37281
7433.55305	0.37470
7429.69547	0.37564
7425.83789	0.37503
7421.98031	0.37519
7418.12273	0.37497
7414.26516	0.37323
7410.40758	0.37275
7406.55000	0.37418
7402.69242	0.37496
7398.83484	0.37393
7394.97727	0.37230
7391.11969	0.37203
7387.26211	0.37317
7383.40453	0.37431
7379.54695	0.37480
7375.68937	0.37455
7371.83180	0.37330
7367.97422	0.37163
7364.11664	0.37214
7360.25906	0.37369
7356.40148	0.37322
7352.54391	0.37307
7348.68633	0.37358
7344.82875	0.37197
7340.97117	0.37085
7337.11359	0.37167
7333.25602	0.37189
7329.39844	0.37277
7325.54086	0.37398
7321.68328	0.37296
7317.82570	0.37165
7313.96812	0.37132
7310.11055	0.37070
7306.25297	0.37023
7302.39539	0.37077
7298.53781	0.37118
7294.68023	0.37060
7290.82266	0.37044
7286.96508	0.37133
7283.10750	0.37172
7279.24992	0.37164
7275.39234	0.37178
7271.53477	0.37062
7267.67719	0.36926
7263.81961	0.37014
7259.96203	0.37162
7256.10445	0.37243
7252.24687	0.37154
7248.38930	0.36901
7244.53172	0.36897
7240.67414	0.37024
7236.81656	0.36959
7232.95898	0.37073
7229.10141	0.37235
7225.24383	0.37122
7221.38625	0.36947
7217.52867	0.36826
7213.67109	0.36811
7209.81352	0.36925
7205.95594	0.37110
7202.09836	0.37193
7198.24078	0.37130
7194.38320	0.37096
7190.52562	0.37070
7186.66805	0.37012
7182.81047	0.37058
7178.95289	0.37203
7175.09531	0.37207
7171.23773	0.37010
7167.38016	0.36876
7163.52258	0.36968
7159.66500	0.37083
7155.80742	0.37090
7151.94984	0.37038
7148.09227	0.37036
7144.23469	0.37071
7140.37711	0.37128
7136.51953	0.37210
7132.66195	0.37127
7128.80437	0.36954
7124.94680	0.36937
7121.08922	0.37002
7117.23164	0.37044
7113.37406	0.37046
7109.51648	0.37025
7105.65891	0.37006
7101.80133	0.36978
7097.94375	0.36978
7094.08617	0.36991
7090.22859	0.36958
7086.37102	0.36910
7082.51344	0.36892
7078.65586	0.36912
7074.79828	0.36885
7070.94070	0.36821
7067.08312	0.36830
7063.22555	0.36912
7059.36797	0.36984
7055.51039	0.36950
7051.65281	0.36911
7047.79523	0.36954
7043.93766	0.36957
7040.08008	0.36899
7036.22250	0.36831
7032.36492	0.36835
7028.50734	0.36882
7024.64977	0.36830
7020.79219	0.36824
7016.93461	0.36935
7013.07703	0.36961
7009.21945	0.36877
7005.36187	0.36782
7001.50430	0.36772
6997.64672	0.36811
6993.78914	0.36817
6989.93156	0.36863
6986.07398	0.36855
6982.21641	0.36762
6978.35883	0.36772
6974.50125	0.36848
6970.64367	0.36920
6966.78609	0.36963
6962.92852	0.36903
6959.07094	0.36813
6955.21336	0.36761
6951.35578	0.36722
6947.49820	0.36774
6943.64062	0.36860
6939.78305	0.36828
6935.92547	0.36834
6932.06789	0.36887
6928.21031	0.36848
6924.35273	0.36870
6920.49516	0.36947
6916.63758	0.36922
6912.78000	0.36834
6908.92242	0.36765
6905.06484	0.36738
6901.20727	0.36765
6897.34969	0.36842
6893.49211	0.36899
6889.63453	0.36889
6885.77695	0.36876
6881.91937	0.36870
6878.06180	0.36831
6874.20422	0.36778
6870.34664	0.36817
6866.48906	0.36940
6862.63148	0.36914
6858.77391	0.36747
6854.91633	0.36717
6851.05875	0.36786
6847.20117	0.36759
6843.34359	0.36725
6839.48602	0.36796
6835.62844	0.36869
6831.77086	0.36846
6827.91328	0.36801
6824.05570	0.36798
6820.19812	0.36777
6816.34055	0.36704
6812.48297	0.36699
6808.62539	0.36818
6804.76781	0.36807
6800.91023	0.36661
6797.05266	0.36669
6793.19508	0.36780
6789.33750	0.36810
6785.47992	0.36763
6781.62234	0.36726
6777.76477	0.36717
6773.90719	0.36663
6770.04961	0.36633
6766.19203	0.36733
6762.33445	0.36824
6758.47687	0.36805
6754.61930	0.36782
6750.76172	0.36757
6746.90414	0.36725
6743.04656	0.36791
6739.18898	0.36836
6735.33141	0.36771
6731.47383	0.36738
6727.61625	0.36766
6723.75867	0.36779
6719.90109	0.36775
6716.04352	0.36758
6712.18594	0.36669
6708.32836	0.36597
6704.47078	0.36676
6700.61320	0.36775
6696.75562	0.36801
6692.89805	0.36802
6689.04047	0.36774
6685.18289	0.36735
6681.32531	0.36687
6677.46773	0.36675
6673.61016	0.36704
6669.75258	0.36694
6665.89500	0.36720
6662.03742	0.36824
6658.17984	0.36883
6654.32227	0.36831
6650.46469	0.36772
6646.60711	0.36772
6642.74953	0.36750
6638.89195	0.36734
6635.03437	0.36744
6631.17680	0.36735
6627.31922	0.36738
6623.46164	0.36745
6619.60406	0.36783
6615.74648	0.36818
6611.88891	0.36766
6608.03133	0.36710
6604.17375	0.36703
6600.31617	0.36731
6596.45859	0.36767
6592.60102	0.36735
6588.74344	0.36675
6584.88586	0.36632
6581.02828	0.36615
6577.17070	0.36721
6573.31312	0.36851
6569.45555	0.36860
6565.59797	0.36830
6561.74039	0.36782
6557.88281	0.36732
6554.02523	0.36704
6550.16766	0.36731
6546.31008	0.36824
6542.45250	0.36799
6538.59492	0.36709
6534.73734	0.36720
6530.87977	0.36721
6527.02219	0.36743
6523.16461	0.36797
6519.30703	0.36750
6515.44945	0.36697
6511.59187	0.36740
6507.73430	0.36820
6503.87672	0.36823
6500.01914	0.36736
6496.16156	0.36719
6492.30398	0.36808
6488.44641	0.36808
6484.58883	0.36729
6480.73125	0.36770
6476.87367	0.36820
6473.01609	0.36741
6469.15852	0.36690
6465.30094	0.36681
6461.44336	0.36646
6457.58578	0.36669
6453.72820	0.36721
6449.87062	0.36759
6446.01305	0.36787
6442.15547	0.36768
6438.29789	0.36784
6434.44031	0.36810
6430.58273	0.36768
6426.72516	0.36790
6422.86758	0.36811
6419.01000	0.36743
6415.15242	0.36731
6411.29484	0.36761
6407.43727	0.36765
6403.57969	0.36762
6399.72211	0.36779
6395.86453	0.36840
6392.00695	0.36866
6388.14937	0.36848
6384.29180	0.36809
6380.43422	0.36739
6376.57664	0.36702
6372.71906	0.36717
6368.86148	0.36794
6365.00391	0.36864
6361.14633	0.36834
6357.28875	0.36806
6353.43117	0.36816
6349.57359	0.36778
6345.71602	0.36740
6341.85844	0.36768
6338.00086	0.36779
6334.14328	0.36740
6330.28570	0.36730
6326.42812	0.36738
6322.57055	0.36766
6318.71297	0.36794
6314.85539	0.36775
6310.99781	0.36773
6307.14023	0.36801
6303.28266	0.36832
6299.42508	0.36836
6295.56750	0.36766
6291.70992	0.36731
6287.85234	0.36783
6283.99477	0.36784
6280.13719	0.36753
6276.27961	0.36778
6272.42203	0.36774
6268.56445	0.36720
6264.70687	0.36722
6260.84930	0.36823
6256.99172	0.36914
6253.13414	0.36907
6249.27656	0.36893
6245.41898	0.36859
6241.56141	0.36773
6237.70383	0.36760
6233.84625	0.36772
6229.98867	0.36731
6226.13109	0.36754
6222.27352	0.36845
6218.41594	0.36855
6214.55836	0.36800
6210.70078	0.36818
6206.84320	0.36870
6202.98562	0.36893
6199.12805	0.36920
6195.27047	0.36964
6191.41289	0.36974
6187.55531	0.36898
6183.69773	0.36884
6179.84016	0.36948
6175.98258	0.36912
6172.12500	0.36871
6168.26742	0.36880
6164.40984	0.36864
6160.55227	0.36896
6156.69469	0.36936
6152.83711	0.36904
6148.97953	0.36868
6145.12195	0.36894
6141.26437	0.36948
6137.40680	0.36952
6133.54922	0.36912
6129.69164	0.36857
6125.83406	0.36839
6121.97648	0.36891
6118.11891	0.36927
6114.26133	0.36935
6110.40375	0.36958
6106.54617	0.36945
6102.68859	0.36897
6098.83102	0.36858
6094.97344	0.36845
6091.11586	0.36847
6087.25828	0.36860
6083.40070	0.36940
6079.54312	0.37031
6075.68555	0.37011
6071.82797	0.36942
6067.97039	0.36921
6064.11281	0.36958
6060.25523	0.36992
6056.39766	0.36960
6052.54008	0.36953
6048.68250	0.37006
6044.82492	0.36993
6040.96734	0.36941
6037.10977	0.36977
6033.25219	0.37015
6029.39461	0.36974
6025.53703	0.36960
6021.67945	0.36984
6017.82187	0.37009
6013.96430	0.37042
6010.10672	0.37038
6006.24914	0.37023
6002.39156	0.37026
5998.53398	0.37007
5994.67641	0.37010
5990.81883	0.37052
5986.96125	0.37039
5983.10367	0.37019
5979.24609	0.37062
5975.38852	0.37047
5971.53094	0.37011
5967.67336	0.37020
5963.81578	0.36985
5959.95820	0.36964
5956.10062	0.37005
5952.24305	0.37038
5948.38547	0.37060
5944.52789	0.37079
5940.67031	0.37043
5936.81273	0.36982
5932.95516	0.36987
5929.09758	0.37001
5925.24000	0.37026
5921.38242	0.37055
5917.52484	0.36981
5913.66727	0.36954
5909.80969	0.37045
5905.95211	0.37115
5902.09453	0.37152
5898.23695	0.37111
5894.37937	0.37015
5890.52180	0.36983
5886.66422	0.37022
5882.80664	0.37093
5878.94906	0.37134
5875.09148	0.37167
5871.23391	0.37187
5867.37633	0.37111
5863.51875	0.37060
5859.66117	0.37096
5855.80359	0.37084
5851.94602	0.37066
5848.08844	0.37106
5844.23086	0.37126
5840.37328	0.37126
5836.51570	0.37141
5832.65812	0.37147
5828.80055	0.37148
5824.94297	0.37154
5821.08539	0.37156
5817.22781	0.37159
5813.37023	0.37151
5809.51266	0.37149
5805.65508	0.37151
5801.79750	0.37130
5797.93992	0.37127
5794.08234	0.37108
5790.22477	0.37054
5786.36719	0.37120
5782.50961	0.37239
5778.65203	0.37219
5774.79445	0.37198
5770.93687	0.37196
5767.07930	0.37120
5763.22172	0.37122
5759.36414	0.37179
5755.50656	0.37200
5751.64898	0.37216
5747.79141	0.37183
5743.93383	0.37162
5740.07625	0.37166
5736.21867	0.37172
5732.36109	0.37266
5728.50352	0.37305
5724.64594	0.37213
5720.78836	0.37157
5716.93078	0.37147
5713.07320	0.37132
5709.21562	0.37157
5705.35805	0.37195
5701.50047	0.37204
5697.64289	0.37232
5693.78531	0.37238
5689.92773	0.37198
5686.07016	0.37209
5682.21258	0.37209
5678.35500	0.37147
5674.49742	0.37122
5670.63984	0.37162
5666.78227	0.37183
5662.92469	0.37138
5659.06711	0.37131
5655.20953	0.37185
5651.35195	0.37193
5647.49437	0.37176
5643.63680	0.37178
5639.77922	0.37197
5635.92164	0.37222
5632.06406	0.37223
5628.20648	0.37216
5624.34891	0.37207
5620.49133	0.37227
5616.63375	0.37269
5612.77617	0.37270
5608.91859	0.37269
5605.06102	0.37265
5601.20344	0.37237
5597.34586	0.37219
5593.48828	0.37206
5589.63070	0.37211
5585.77312	0.37218
5581.91555	0.37227
5578.05797	0.37239
5574.20039	0.37214
5570.34281	0.37216
5566.48523	0.37250
5562.62766	0.37248
5558.77008	0.37251
5554.91250	0.37259
5551.05492	0.37259
5547.19734	0.37280
5543.33977	0.37310
5539.48219	0.37307
5535.62461	0.37284
5531.76703	0.37282
5527.90945	0.37266
5524.05187	0.37230
5520.19430	0.37236
5516.33672	0.37268
5512.47914	0.37269
5508.62156	0.37264
5504.76398	0.37283
5500.90641	0.37258
5497.04883	0.37194
5493.19125	0.37202
5489.33367	0.37227
5485.47609	0.37281
5481.61852	0.37379
5477.76094	0.37303
5473.90336	0.37177
5470.04578	0.37195
5466.18820	0.37225
5462.33062	0.37312
5458.47305	0.37388
5454.61547	0.37376
5450.75789	0.37293
5446.90031	0.37143
5443.04273	0.37143
5439.18516	0.37245
5435.32758	0.37248
5431.47000	0.37203
5427.61242	0.37220
5423.75484	0.37278
5419.89727	0.37322
5416.03969	0.37413
5412.18211	0.37439
5408.32453	0.37334
5404.46695	0.37311
5400.60937	0.37349
5396.75180	0.37368
5392.89422	0.37360
5389.03664	0.37308
5385.17906	0.37239
5381.32148	0.37263
5377.46391	0.37332
5373.60633	0.37327
5369.74875	0.37321
5365.89117	0.37301
5362.03359	0.37246
5358.17602	0.37246
5354.31844	0.37279
5350.46086	0.37261
5346.60328	0.37192
5342.74570	0.37144
5338.88812	0.37122
5335.03055	0.37175
5331.17297	0.37249
5327.31539	0.37230
5323.45781	0.37262
5319.60023	0.37335
5315.74266	0.37307
5311.88508	0.37250
5308.02750	0.37228
5304.16992	0.37248
5300.31234	0.37295
5296.45477	0.37342
5292.59719	0.37369
5288.73961	0.37318
5284.88203	0.37268
5281.02445	0.37305
5277.16687	0.37282
5273.30930	0.37244
5269.45172	0.37319
5265.59414	0.37286
5261.73656	0.37176
5257.87898	0.37192
5254.02141	0.37181
5250.16383	0.37135
5246.30625	0.37093
5242.44867	0.37139
5238.59109	0.37236
5234.73352	0.37184
5230.87594	0.37126
5227.01836	0.37200
5223.16078	0.37276
5219.30320	0.37292
5215.44562	0.37285
5211.58805	0.37321
5207.73047	0.37338
5203.87289	0.37277
5200.01531	0.37227
5196.15773	0.37209
5192.30016	0.37219
5188.44258	0.37223
5184.58500	0.37243
5180.72742	0.37275
5176.86984	0.37269
5173.01227	0.37235
5169.15469	0.37198
5165.29711	0.37190
5161.43953	0.37175
5157.58195	0.37124
5153.72437	0.37097
5149.86680	0.37140
5146.00922	0.37209
5142.15164	0.37236
5138.29406	0.37233
5134.43648	0.37230
5130.57891	0.37236
5126.72133	0.37234
5122.86375	0.37205
5119.00617	0.37201
5115.14859	0.37184
5111.29102	0.37138
5107.43344	0.37152
5103.57586	0.37160
5099.71828	0.37137
5095.86070	0.37157
5092.00312	0.37202
5088.14555	0.37214
5084.28797	0.37156
5080.43039	0.37099
5076.57281	0.37109
5072.71523	0.37131
5068.85766	0.37152
5065.00008	0.37171
5061.14250	0.37158
5057.28492	0.37124
5053.42734	0.37108
5049.56977	0.37110
5045.71219	0.37097
5041.85461	0.37072
5037.99703	0.37082
5034.13945	0.37131
5030.28187	0.37151
5026.42430	0.37130
5022.56672	0.37117
5018.70914	0.37104
5014.85156	0.37083
5010.99398	0.37084
5007.13641	0.37103
5003.27883	0.37094
4999.42125	0.37085
4995.56367	0.37104
4991.70609	0.37096
4987.84852	0.37071
4983.99094	0.37067
4980.13336	0.37052
4976.27578	0.37033
4972.41820	0.37055
4968.56062	0.37082
4964.70305	0.37094
4960.84547	0.37124
4956.98789	0.37114
4953.13031	0.37070
4949.27273	0.37080
4945.41516	0.37087
4941.55758	0.37041
4937.70000	0.37005
4933.84242	0.37011
4929.98484	0.37043
4926.12727	0.37074
4922.26969	0.37047
4918.41211	0.36994
4914.55453	0.37028
4910.69695	0.37065
4906.83937	0.37044
4902.98180	0.37038
4899.12422	0.37005
4895.26664	0.36980
4891.40906	0.37002
4887.55148	0.37001
4883.69391	0.37024
4879.83633	0.37051
4875.97875	0.36988
4872.12117	0.36925
4868.26359	0.36950
4864.40602	0.36998
4860.54844	0.36986
4856.69086	0.36941
4852.83328	0.36938
4848.97570	0.36953
4845.11812	0.36975
4841.26055	0.37009
4837.40297	0.36989
4833.54539	0.36946
4829.68781	0.36939
4825.83023	0.36927
4821.97266	0.36893
4818.11508	0.36877
4814.25750	0.36878
4810.39992	0.36873
4806.54234	0.36894
4802.68477	0.36901
4798.82719	0.36867
4794.96961	0.36882
4791.11203	0.36921
4787.25445	0.36891
4783.39687	0.36847
4779.53930	0.36856
4775.68172	0.36857
4771.82414	0.36821
4767.96656	0.36801
4764.10898	0.36803
4760.25141	0.36828
4756.39383	0.36843
4752.53625	0.36820
4748.67867	0.36810
4744.82109	0.36784
4740.96352	0.36748
4737.10594	0.36769
4733.24836	0.36785
4729.39078	0.36773
4725.53320	0.36778
4721.67562	0.36766
4717.81805	0.36734
4713.96047	0.36748
4710.10289	0.36792
4706.24531	0.36793
4702.38773	0.36761
4698.53016	0.36719
4694.67258	0.36694
4690.81500	0.36708
4686.95742	0.36714
4683.09984	0.36716
4679.24227	0.36722
4675.38469	0.36714
4671.52711	0.36717
4667.66953	0.36726
4663.81195	0.36734
4659.95437	0.36731
4656.09680	0.36711
4652.23922	0.36699
4648.38164	0.36681
4644.52406	0.36650
4640.66648	0.36636
4636.80891	0.36654
4632.95133	0.36672
4629.09375	0.36645
4625.23617	0.36626
4621.37859	0.36634
4617.52102	0.36635
4613.66344	0.36639
4609.80586	0.36636
4605.94828	0.36628
4602.09070	0.36624
4598.23312	0.36612
4594.37555	0.36586
4590.51797	0.36544
4586.66039	0.36531
4582.80281	0.36557
4578.94523	0.36564
4575.08766	0.36575
4571.23008	0.36598
4567.37250	0.36578
4563.51492	0.36537
4559.65734	0.36533
4555.79977	0.36553
4551.94219	0.36527
4548.08461	0.36467
4544.22703	0.36454
4540.36945	0.36486
4536.51187	0.36502
4532.65430	0.36497
4528.79672	0.36495
4524.93914	0.36508
4521.08156	0.36512
4517.22398	0.36479
4513.36641	0.36433
4509.50883	0.36395
4505.65125	0.36398
4501.79367	0.36419
4497.93609	0.36408
4494.07852	0.36430
4490.22094	0.36470
4486.36336	0.36459
4482.50578	0.36435
4478.64820	0.36406
4474.79062	0.36405
4470.93305	0.36443
4467.07547	0.36431
4463.21789	0.36380
4459.36031	0.36362
4455.50273	0.36362
4451.64516	0.36355
4447.78758	0.36358
4443.93000	0.36342
4440.07242	0.36316
4436.21484	0.36311
4432.35727	0.36312
4428.49969	0.36339
4424.64211	0.36368
4420.78453	0.36344
4416.92695	0.36302
4413.06937	0.36281
4409.21180	0.36272
4405.35422	0.36258
4401.49664	0.36242
4397.63906	0.36228
4393.78148	0.36234
4389.92391	0.36270
4386.06633	0.36268
4382.20875	0.36222
4378.35117	0.36184
4374.49359	0.36167
4370.63602	0.36190
4366.77844	0.36237
4362.92086	0.36256
4359.06328	0.36243
4355.20570	0.36213
4351.34812	0.36183
4347.49055	0.36174
4343.63297	0.36173
4339.77539	0.36175
4335.91781	0.36193
4332.06023	0.36206
4328.20266	0.36184
4324.34508	0.36145
4320.48750	0.36132
4316.62992	0.36144
4312.77234	0.36148
4308.91477	0.36135
4305.05719	0.36112
4301.19961	0.36099
4297.34203	0.36108
4293.48445	0.36123
4289.62687	0.36131
4285.76930	0.36122
4281.91172	0.36095
4278.05414	0.36071
4274.19656	0.36073
4270.33898	0.36084
4266.48141	0.36080
4262.62383	0.36079
4258.76625	0.36071
4254.90867	0.36026
4251.05109	0.35988
4247.19352	0.35992
4243.33594	0.36014
4239.47836	0.36034
4235.62078	0.36030
4231.76320	0.36011
4227.90562	0.36010
4224.04805	0.35995
4220.19047	0.35969
4216.33289	0.35969
4212.47531	0.35973
4208.61773	0.35964
4204.76016	0.35943
4200.90258	0.35917
4197.04500	0.35914
4193.18742	0.35926
4189.32984	0.35938
4185.47227	0.35932
4181.61469	0.35917
4177.75711	0.35932
4173.89953	0.35945
4170.04195	0.35920
4166.18437	0.35892
4162.32680	0.35877
4158.46922	0.35863
4154.61164	0.35869
4150.75406	0.35882
4146.89648	0.35866
4143.03891	0.35847
4139.18133	0.35848
4135.32375	0.35845
4131.46617	0.35832
4127.60859	0.35841
4123.75102	0.35870
4119.89344	0.35867
4116.03586	0.35829
4112.17828	0.35816
4108.32070	0.35825
4104.46312	0.35817
4100.60555	0.35808
4096.74797	0.35809
4092.89039	0.35815
4089.03281	0.35817
4085.17523	0.35800
4081.31766	0.35782
4077.46008	0.35774
4073.60250	0.35764
4069.74492	0.35763
4065.88734	0.35759
4062.02977	0.35737
4058.17219	0.35728
4054.31461	0.35737
4050.45703	0.35730
4046.59945	0.35718
4042.74187	0.35720
4038.88430	0.35723
4035.02672	0.35711
4031.16914	0.35692
4027.31156	0.35683
4023.45398	0.35697
4019.59641	0.35709
4015.73883	0.35675
4011.88125	0.35657
4008.02367	0.35680
4004.16609	0.35668
4000.30852	0.35650
3996.45094	0.35658
3992.59336	0.35646
3988.73578	0.35641
3984.87820	0.35653
3981.02062	0.35645
3977.16305	0.35635
3973.30547	0.35641
3969.44789	0.35625
3965.59031	0.35584
3961.73273	0.35580
3957.87516	0.35599
3954.01758	0.35583
3950.16000	0.35601
3946.30242	0.35622
3942.44484	0.35560
3938.58727	0.35529
3934.72969	0.35532
3930.87211	0.35497
3927.01453	0.35462
3923.15695	0.35501
3919.29937	0.35626
3915.44180	0.35646
3911.58422	0.35594
3907.72664	0.35604
3903.86906	0.35574
3900.01148	0.35535
3896.15391	0.35493
3892.29633	0.35369
3888.43875	0.35423
3884.58117	0.35591
3880.72359	0.35536
3876.86602	0.35407
3873.00844	0.35319
3869.15086	0.35375
3865.29328	0.35576
3861.43570	0.35605
3857.57812	0.35549
3853.72055	0.35523
3849.86297	0.35418
3846.00539	0.35352
3842.14781	0.35357
3838.29023	0.35480
3834.43266	0.35588
3830.57508	0.35553
3826.71750	0.35469
3822.85992	0.35534
3819.00234	0.35557
3815.14477	0.35327
3811.28719	0.35327
3807.42961	0.35470
3803.57203	0.35468
3799.71445	0.35464
3795.85687	0.35496
3791.99930	0.35462
3788.14172	0.35401
3784.28414	0.35372
3780.42656	0.35456
3776.56898	0.35446
3772.71141	0.35388
3768.85383	0.35468
3764.99625	0.35496
3761.13867	0.35462
3757.28109	0.35467
3753.42352	0.35486
3749.56594	0.35566
3745.70836	0.35474
3741.85078	0.35273
3737.99320	0.35244
3734.13562	0.35401
3730.27805	0.35356
3726.42047	0.35273
3722.56289	0.35327
3718.70531	0.35356
3714.84773	0.35383
3710.99016	0.35372
3707.13258	0.35257
3703.27500	0.35246
3699.41742	0.35240
3695.55984	0.35220
3691.70227	0.35313
3687.84469	0.35328
3683.98711	0.35265
3680.12953	0.35317
3676.27195	0.35319
3672.41437	0.35255
3668.55680	0.35286
3664.69922	0.35244
3660.84164	0.35235
3656.98406	0.35301
3653.12648	0.35318
3649.26891	0.35278
3645.41133	0.35250
3641.55375	0.35263
3637.69617	0.35255
3633.83859	0.35216
3629.98102	0.35255
3626.12344	0.35294
3622.26586	0.35236
3618.40828	0.35162
3614.55070	0.35190
3610.69312	0.35279
3606.83555	0.35240
3602.97797	0.35200
3599.12039	0.35261
3595.26281	0.35248
3591.40523	0.35221
3587.54766	0.35227
3583.69008	0.35147
3579.83250	0.35125
3575.97492	0.35195
3572.11734	0.35250
3568.25977	0.35261
3564.40219	0.35210
3560.54461	0.35206
3556.68703	0.35238
3552.82945	0.35202
3548.97187	0.35178
3545.11430	0.35215
3541.25672	0.35223
3537.39914	0.35226
3533.54156	0.35210
3529.68398	0.35166
3525.82641	0.35179
3521.96883	0.35216
3518.11125	0.35193
3514.25367	0.35167
3510.39609	0.35189
3506.53852	0.35207
3502.68094	0.35174
3498.82336	0.35149
3494.96578	0.35154
3491.10820	0.35155
3487.25062	0.35157
3483.39305	0.35156
3479.53547	0.35144
3475.67789	0.35145
3471.82031	0.35152
3467.96273	0.35141
3464.10516	0.35122
3460.24758	0.35102
3456.39000	0.35078
3452.53242	0.35078
3448.67484	0.35115
3444.81727	0.35129
3440.95969	0.35096
3437.10211	0.35095
3433.24453	0.35123
3429.38695	0.35118
3425.52937	0.35087
3421.67180	0.35077
3417.81422	0.35086
3413.95664	0.35099
3410.09906	0.35122
3406.24148	0.35120
3402.38391	0.35081
3398.52633	0.35057
3394.66875	0.35062
3390.81117	0.35077
3386.95359	0.35077
3383.09602	0.35064
3379.23844	0.35062
3375.38086	0.35061
3371.52328	0.35064
3367.66570	0.35073
3363.80812	0.35065
3359.95055	0.35038
3356.09297	0.35025
3352.23539	0.35049
3348.37781	0.35060
3344.52023	0.35040
3340.66266	0.35048
3336.80508	0.35064
3332.94750	0.35032
3329.08992	0.35009
3325.23234	0.35013
3321.37477	0.35007
3317.51719	0.35017
3313.65961	0.35023
3309.80203	0.35007
3305.94445	0.34995
3302.08687	0.34997
3298.22930	0.35009
3294.37172	0.35000
3290.51414	0.34990
3286.65656	0.34994
3282.79898	0.34994
3278.94141	0.34990
3275.08383	0.34953
3271.22625	0.34931
3267.36867	0.34961
3263.51109	0.34965
3259.65352	0.34945
3255.79594	0.34944
3251.93836	0.34942
3248.08078	0.34923
3244.22320	0.34931
3240.36562	0.34966
3236.50805	0.34957
3232.65047	0.34927
3228.79289	0.34923
3224.93531	0.34924
3221.07773	0.34921
3217.22016	0.34909
3213.36258	0.34892
3209.50500	0.34886
3205.64742	0.34879
3201.78984	0.34877
3197.93227	0.34889
3194.07469	0.34888
3190.21711	0.34878
3186.35953	0.34877
3182.50195	0.34875
3178.64437	0.34867
3174.78680	0.34858
3170.92922	0.34861
3167.07164	0.34880
3163.21406	0.34887
3159.35648	0.34855
3155.49891	0.34811
3151.64133	0.34803
3147.78375	0.34831
3143.92617	0.34847
3140.06859	0.34824
3136.21102	0.34794
3132.35344	0.34794
3128.49586	0.34796
3124.63828	0.34776
3120.78070	0.34763
3116.92312	0.34776
3113.06555	0.34793
3109.20797	0.34782
3105.35039	0.34740
3101.49281	0.34710
3097.63523	0.34720
3093.77766	0.34741
3089.92008	0.34734
3086.06250	0.34710
3082.20492	0.34705
3078.34734	0.34702
3074.48977	0.34686
3070.63219	0.34689
3066.77461	0.34699
3062.91703	0.34700
3059.05945	0.34692
3055.20187	0.34668
3051.34430	0.34654
3047.48672	0.34656
3043.62914	0.34651
3039.77156	0.34649
3035.91398	0.34651
3032.05641	0.34643
3028.19883	0.34622
3024.34125	0.34603
3020.48367	0.34594
3016.62609	0.34584
3012.76852	0.34564
3008.91094	0.34562
3005.05336	0.34577
3001.19578	0.34579
2997.33820	0.34578
2993.48062	0.34580
2989.62305	0.34580
2985.76547	0.34566
2981.90789	0.34526
2978.05031	0.34496
2974.19273	0.34490
2970.33516	0.34477
2966.47758	0.34451
2962.62000	0.34426
2958.76242	0.34416
2954.90484	0.34407
2951.04727	0.34397
2947.18969	0.34391
2943.33211	0.34375
2939.47453	0.34354
2935.61695	0.34336
2931.75937	0.34322
2927.90180	0.34316
2924.04422	0.34286
2920.18664	0.34232
2916.32906	0.34208
2912.47148	0.34224
2908.61391	0.34243
2904.75633	0.34249
2900.89875	0.34256
2897.04117	0.34266
2893.18359	0.34269
2889.32602	0.34262
2885.46844	0.34253
2881.61086	0.34243
2877.75328	0.34222
2873.89570	0.34219
2870.03812	0.34240
2866.18055	0.34216
2862.32297	0.34166
2858.46539	0.34154
2854.60781	0.34133
2850.75023	0.34095
2846.89266	0.34095
2843.03508	0.34125
2839.17750	0.34162
2835.31992	0.34173
2831.46234	0.34154
2827.60477	0.34133
2823.74719	0.34109
2819.88961	0.34096
2816.03203	0.34104
2812.17445	0.34101
2808.31687	0.34083
2804.45930	0.34073
2800.60172	0.34063
2796.74414	0.34038
2792.88656	0.34013
2789.02898	0.34012
2785.17141	0.34017
2781.31383	0.34008
2777.45625	0.34005
2773.59867	0.34006
2769.74109	0.33996
2765.88352	0.33967
2762.02594	0.33947
2758.16836	0.33942
2754.31078	0.33917
2750.45320	0.33891
2746.59562	0.33880
2742.73805	0.33859
2738.88047	0.33862
2735.02289	0.33872
2731.16531	0.33848
2727.30773	0.33837
2723.45016	0.33844
2719.59258	0.33828
2715.73500	0.33810
2711.87742	0.33798
2708.01984	0.33795
2704.16227	0.33792
2700.30469	0.33747
2696.44711	0.33699
2692.58953	0.33700
2688.73195	0.33705
2684.87437	0.33686
2681.01680	0.33676
2677.15922	0.33675
2673.30164	0.33667
2669.44406	0.33660
2665.58648	0.33637
2661.72891	0.33602
2657.87133	0.33576
2654.01375	0.33550
2650.15617	0.33522
2646.29859	0.33498
2642.44102	0.33508
2638.58344	0.33530
2634.72586	0.33514
2630.86828	0.33501
2627.01070	0.33487
2623.15312	0.33444
2619.29555	0.33411
2615.43797	0.33390
2611.58039	0.33392
2607.72281	0.33406
2603.86523	0.33386
2600.00766	0.33370
2596.15008	0.33372
2592.29250	0.33356
2588.43492	0.33342
2584.57734	0.33339
2580.71977	0.33300
2576.86219	0.33236
2573.00461	0.33221
2569.14703	0.33229
2565.28945	0.33202
2561.43187	0.33169
2557.57430	0.33160
2553.71672	0.33172
2549.85914	0.33173
2546.00156	0.33147
2542.14398	0.33135
2538.28641	0.33129
2534.42883	0.33113
2530.57125	0.33088
2526.71367	0.33079
2522.85609	0.33108
2518.99852	0.33088
2515.14094	0.33032
2511.28336	0.33023
2507.42578	0.32992
2503.56820	0.32931
2499.71062	0.32935
2495.85305	0.32931
2491.99547	0.32876
2488.13789	0.32883
2484.28031	0.32910
2480.42273	0.32894
2476.56516	0.32891
2472.70758	0.32888
2468.85000	0.32857
2464.99242	0.32793
2461.13484	0.32753
2457.27727	0.32768
2453.41969	0.32786
2449.56211	0.32786
2445.70453	0.32739
2441.84695	0.32700
2437.98937	0.32713
2434.13180	0.32707
2430.27422	0.32694
2426.41664	0.32704
2422.55906	0.32686
2418.70148	0.32634
2414.84391	0.32628
2410.98633	0.32656
2407.12875	0.32640
2403.27117	0.32620
2399.41359	0.32576
2395.55602	0.32501
2391.69844	0.32502
2387.84086	0.32532
2383.98328	0.32519
2380.12570	0.32474
2376.26812	0.32368
2372.41055	0.32371
2368.55297	0.32884
2364.69539	0.33350
2360.83781	0.33616
2356.98023	0.33717
2353.12266	0.32943
2349.26508	0.32519
2345.40750	0.32367
2341.54992	0.32621
2337.69234	0.32956
2333.83477	0.32706
2329.97719	0.32253
2326.11961	0.32489
2322.26203	0.32740
2318.40445	0.32443
2314.54687	0.32394
2310.68930	0.32543
2306.83172	0.32398
2302.97414	0.32200
2299.11656	0.32166
2295.25898	0.32202
2291.40141	0.32183
2287.54383	0.32152
2283.68625	0.32180
2279.82867	0.32173
2275.97109	0.32166
2272.11352	0.32234
2268.25594	0.32194
2264.39836	0.32087
2260.54078	0.32054
2256.68320	0.31982
2252.82562	0.31948
2248.96805	0.31986
2245.11047	0.31994
2241.25289	0.32003
2237.39531	0.31963
2233.53773	0.31942
2229.68016	0.31941
2225.82258	0.31819
2221.96500	0.31745
2218.10742	0.31736
2214.24984	0.31675
2210.39227	0.31650
2206.53469	0.31685
2202.67711	0.31709
2198.81953	0.31669
2194.96195	0.31647
2191.10437	0.31639
2187.24680	0.31603
2183.38922	0.31646
2179.53164	0.31652
2175.67406	0.31542
2171.81648	0.31505
2167.95891	0.31581
2164.10133	0.31616
2160.24375	0.31547
2156.38617	0.31563
2152.52859	0.31639
2148.67102	0.31534
2144.81344	0.31392
2140.95586	0.31404
2137.09828	0.31483
2133.24070	0.31563
2129.38312	0.31579
2125.52555	0.31485
2121.66797	0.31506
2117.81039	0.31701
2113.95281	0.31656
2110.09523	0.31530
2106.23766	0.31698
2102.38008	0.31831
2098.52250	0.31869
2094.66492	0.31890
2090.80734	0.31815
2086.94977	0.32056
2083.09219	0.32565
2079.23461	0.32679
2075.37703	0.32333
2071.51945	0.32070
2067.66187	0.32062
2063.80430	0.32152
2059.94672	0.32396
2056.08914	0.32557
2052.23156	0.32512
2048.37398	0.32606
2044.51641	0.32604
2040.65883	0.32223
2036.80125	0.32010
2032.94367	0.32181
2029.08609	0.32327
2025.22852	0.32319
2021.37094	0.32212
2017.51336	0.32031
2013.65578	0.32015
2009.79820	0.32251
2005.94062	0.32308
2002.08305	0.31980
1998.22547	0.31765
1994.36789	0.31716
1990.51031	0.31707
1986.65273	0.31936
1982.79516	0.31976
1978.93758	0.31860
1975.08000	0.31922
1971.22242	0.31681
1967.36484	0.31284
1963.50727	0.31348
1959.64969	0.31642
1955.79211	0.31798
1951.93453	0.31758
1948.07695	0.31538
1944.21937	0.31188
1940.36180	0.31210
1936.50422	0.31496
1932.64664	0.31419
1928.78906	0.31324
1924.93148	0.31479
1921.07391	0.31410
1917.21633	0.31156
1913.35875	0.31010
1909.50117	0.31042
1905.64359	0.31352
1901.78602	0.31404
1897.92844	0.31068
1894.07086	0.31059
1890.21328	0.31176
1886.35570	0.30962
1882.49812	0.30746
1878.64055	0.30649
1874.78297	0.30744
1870.92539	0.30906
1867.06781	0.30871
1863.21023	0.30737
1859.35266	0.30614
1855.49508	0.30605
1851.63750	0.30745
1847.77992	0.30742
1843.92234	0.30486
1840.06477	0.30570
1836.20719	0.30672
1832.34961	0.30371
1828.49203	0.30276
1824.63445	0.30459
1820.77687	0.30522
1816.91930	0.30502
1813.06172	0.30453
1809.20414	0.30608
1805.34656	0.30593
1801.48898	0.30280
1797.63141	0.30196
1793.77383	0.30308
1789.91625	0.30289
1786.05867	0.30157
1782.20109	0.30093
1778.34352	0.30078
1774.48594	0.29938
1770.62836	0.29747
1766.77078	0.29674
1762.91320	0.29669
1759.05562	0.29829
1755.19805	0.29997
1751.34047	0.29845
1747.48289	0.29594
1743.62531	0.29690
1739.76773	0.29639
1735.91016	0.29531
1732.05258	0.29700
1728.19500	0.29515
1724.33742	0.29299
1720.47984	0.29570
1716.62227	0.30050
1712.76469	0.29827
1708.90711	0.29473
1705.04953	0.28994
1701.19195	0.28591
1697.33437	0.28790
1693.47680	0.28886
1689.61922	0.28922
1685.76164	0.29253
1681.90406	0.29450
1678.04648	0.29387
1674.18891	0.29110
1670.33133	0.28528
1666.47375	0.28527
1662.61617	0.28808
1658.75859	0.28755
1654.90102	0.28567
1651.04344	0.28553
1647.18586	0.28554
1643.32828	0.28477
1639.47070	0.28378
1635.61312	0.28406
1631.75555	0.28487
1627.89797	0.28544
1624.04039	0.28766
1620.18281	0.28750
1616.32523	0.28567
1612.46766	0.28637
1608.61008	0.28666
1604.75250	0.28581
1600.89492	0.28413
1597.03734	0.28211
1593.17977	0.28168
1589.32219	0.28169
1585.46461	0.28301
1581.60703	0.28449
1577.74945	0.28235
1573.89187	0.28095
1570.03430	0.28310
1566.17672	0.28342
1562.31914	0.28123
1558.46156	0.28060
1554.60398	0.28429
1550.74641	0.28332
1546.88883	0.28210
1543.03125	0.28210
1539.17367	0.27565
1535.31609	0.27456
1531.45852	0.27644
1527.60094	0.27607
1523.74336	0.27794
1519.88578	0.27792
1516.02820	0.27224
1512.17062	0.27257
1508.31305	0.27989
1504.45547	0.27942
1500.59789	0.27681
1496.74031	0.27816
1492.88273	0.27655
1489.02516	0.27424
1485.16758	0.27627
1481.31000	0.27763
1477.45242	0.27766
1473.59484	0.27673
1469.73727	0.27598
1465.87969	0.27601
1462.02211	0.27604
1458.16453	0.27528
1454.30695	0.27408
1450.44937	0.27541
1446.59180	0.27618
1442.73422	0.27362
1438.87664	0.27120
1435.01906	0.27135
1431.16148	0.27328
1427.30391	0.27443
1423.44633	0.27307
1419.58875	0.27221
1415.73117	0.27455
1411.87359	0.27391
1408.01602	0.26976
1404.15844	0.26822
1400.30086	0.27066
1396.44328	0.27213
1392.58570	0.27234
1388.72812	0.27300
1384.87055	0.27160
1381.01297	0.26979
1377.15539	0.27103
1373.29781	0.27229
1369.44023	0.27048
1365.58266	0.26726
1361.72508	0.26520
1357.86750	0.26792
1354.00992	0.27016
1350.15234	0.26832
1346.29477	0.26679
1342.43719	0.26817
1338.57961	0.26908
1334.72203	0.26904
1330.86445	0.27265
1327.00687	0.27399
1323.14930	0.26992
1319.29172	0.26924
1315.43414	0.27014
1311.57656	0.26759
1307.71898	0.26554
1303.86141	0.26693
1300.00383	0.26856
1296.14625	0.26724
1292.28867	0.26743
1288.43109	0.26791
1284.57352	0.26427
1280.71594	0.26188
1276.85836	0.26369
1273.00078	0.26577
1269.14320	0.26628
1265.28562	0.26651
1261.42805	0.26591
1257.57047	0.26485
1253.71289	0.26450
1249.85531	0.26450
1245.99773	0.26464
1242.14016	0.26234
1238.28258	0.26057
1234.42500	0.26187
1230.56742	0.26171
1226.70984	0.26260
1222.85227	0.26484
1218.99469	0.26530
1215.13711	0.26646
1211.27953	0.26643
1207.42195	0.26548
1203.56437	0.26774
1199.70680	0.26821
1195.84922	0.26322
1191.99164	0.25937
1188.13406	0.25952
1184.27648	0.25725
1180.41891	0.25230
1176.56133	0.25616
1172.70375	0.26551
1168.84617	0.26630
1164.98859	0.26868
1161.13102	0.27720
1157.27344	0.27428
1153.41586	0.25968
1149.55828	0.25126
1145.70070	0.26066
1141.84312	0.27767
1137.98555	0.28446
1134.12797	0.27193
1130.27039	0.26411
1126.41281	0.27463
1122.55523	0.23502
1118.69766	0.18095
1114.84008	0.21564
1110.98250	0.24862
1107.12492	0.23469
1103.26734	0.23267
1099.40977	0.25350
1095.55219	0.29793
1091.69461	0.25795
1087.83703	0.20752
1083.97945	0.22935
1080.12187	0.25078
1076.26430	0.29454
1072.40672	0.34280
1068.54914	0.31131
1064.69156	0.21425
1060.83398	0.15162
1056.97641	0.14351
1053.11883	0.11816
1049.26125	0.19586
1045.40367	0.51841
1041.54609	0.37021
1037.68852	0.25769
1033.83094	0.31114
1029.97336	0.20578
1026.11578	0.10186
1022.25820	0.37298
1018.40062	0.77958
1014.54305	0.23288
1010.68547	0.12359
1006.82789	-0.14141
1002.97031	-0.75188
999.11273	-0.53735
995.25516	0.16849
991.39758	0.19340
987.54000	0.08048
983.68242	0.42681
979.82484	0.42681
975.96727	0.42681
972.10969	-0.33775
968.25211	-0.33775
964.39453	-0.33775
960.53695	0.12275
956.67937	2.02391
952.82180	2.02391
948.96422	2.02391
945.10664	2.02391
941.24906	2.02391
937.39148	3.25755
933.53391	0.84171
929.67633	0.77668
925.81875	0.77668
921.96117	0.77668
918.10359	10.15264
914.24602	0.70281
910.38844	-1.32563
906.53086	-1.32563
902.67328	-1.32563
898.81570	-1.32563
894.95812	-1.32563
891.10055	0.98884
887.24297	-0.07408
883.38539	1.03095
879.52781	0.64456
875.67023	0.80695
871.81266	0.63710
867.95508	-0.04909
864.09750	-0.35483
860.23992	-0.04949
856.38234	-0.06053
852.52477	-0.15652
848.66719	0.24964
844.80961	2.94799
840.95203	1.18826
837.09445	0.51338
833.23687	1.61667
829.37930	12.99456
825.52172	2.15327
821.66414	-0.72753
817.80656	-0.55086
813.94898	-0.29929
810.09141	-0.00759
806.23383	2.41509
802.37625	2.41509
798.51867	1.46285
794.66109	-0.01008
790.80352	0.02958
786.94594	0.02958
783.08836	0.02958
779.23078	0.31951
775.37320	0.04962
771.51562	0.04962
767.65805	0.04962
763.80047	1.09417
759.94289	0.58932
756.08531	0.26098
752.22773	-0.12215
748.37016	-0.51208
744.51258	1.05177
740.65500	2.67978
736.79742	0.96059
732.93984	1.35174
729.08227	1.35174
725.22469	2.10411
721.36711	0.31952
717.50953	0.27076
713.65195	1.08911
709.79437	1.65419
705.93680	2.82670
702.07922	7.01486
698.22164	0.15137
694.36406	0.41854
690.50648	0.69122
686.64891	0.81321
682.79133	0.49586
678.93375	-0.20729
675.07617	0.84709
671.21859	0.54760
667.36102	-0.02297
663.50344	0.95950
659.64586	3.17242
655.78828	3.17242
651.93070	3.17242
648.07312	3.17242
644.21555	12.92972
640.35797	1.34212
636.50039	1.44885
632.64281	1.29173
628.78523	1.79401
624.92766	1.79401
621.07008	1.79401
617.21250	0.72147
613.35492	-0.14627
609.49734	-0.88202
605.63977	0.05441
601.78219	2.08808
597.92461	1.58248
594.06703	-1.38998
590.20945	-1.38998
586.35187	-1.38998
582.49430	0.77924
578.63672	0.50628
574.77914	0.50628
570.92156	0.50628
567.06398	0.47358
563.20641	-8.88579
559.34883	-8.88579
555.49125	-0.79211
551.63367	0.14646
547.77609	0.14646
543.91852	0.14646
540.06094	-0.90493
536.20336	-0.48887
532.34578	-0.59946
528.48820	-0.13240
524.63062	0.33245
520.77305	1.93117
516.91547	0.82817
513.05789	0.46697
509.20031	0.46697
505.34273	0.46697
501.48516	1.53624
497.62758	0.41921
493.77000	5.01137
489.91242	5.01137
486.05484	5.01137
482.19727	-0.21957
478.33969	0.39719
474.48211	0.39719
470.62453	0.39719
466.76695	4.56444
462.90937	4.56444
459.05180	4.56444
455.19422	1.41084
451.33664	0.97998
447.47906	0.51799
443.62148	0.08959
439.76391	0.08959
435.90633	0.08959
432.04875	0.08959
428.19117	8.11883
424.33359	2.48107
420.47602	2.27573
416.61844	0.80541
412.76086	0.60089
408.90328	0.82393
405.04570	1.10473
401.18812	12.40127
397.33055	12.40127
393.47297	12.40127
389.61539	-3.02680
385.75781	-0.10598
381.90023	0.47364
378.04266	0.69803
374.18508	0.69803
370.32750	-1.01039
366.46992	-0.50264
362.61234	2.08946
358.75477	0.89771
354.89719	4.02080
351.03961	4.02080
347.18203	4.02080
343.32445	0.64014
339.46687	1.56188
335.60930	0.73380
331.75172	-0.24289
327.89414	1.48323
324.03656	5.22472
320.17898	5.22472
316.32141	5.22472
312.46383	-1.25426
308.60625	-0.34690
304.74867	-0.31395
300.89109	-0.25860
