14998.26375	0.18750
14994.40617	0.32132
14990.54859	0.51755
14986.69102	0.09971
14982.83344	-0.02938
14978.97586	0.33588
14975.11828	0.59565
14971.26070	0.83635
14967.40312	0.36943
14963.54555	0.14422
14959.68797	0.29468
14955.83039	0.35564
14951.97281	0.32163
14948.11523	0.31324
14944.25766	0.37496
14940.40008	0.45531
14936.54250	0.46556
14932.68492	0.45761
14928.82734	0.41861
14924.96977	0.36468
14921.11219	0.36254
14917.25461	0.31181
14913.39703	0.20302
14909.53945	0.26960
14905.68187	0.22557
14901.82430	-0.00839
14897.96672	0.22844
14894.10914	0.63109
14890.25156	0.46738
14886.39398	0.19356
14882.53641	0.27648
14878.67883	0.50280
14874.82125	0.47854
14870.96367	0.50793
14867.10609	0.72512
14863.24852	0.51691
14859.39094	0.41555
14855.53336	0.33308
14851.67578	0.20816
14847.81820	0.36306
14843.96062	0.36139
14840.10305	0.32379
14836.24547	0.53903
14832.38789	0.41843
14828.53031	0.38714
14824.67273	0.43399
14820.81516	0.33346
14816.95758	0.40325
14813.10000	0.51729
14809.24242	0.36277
14805.38484	0.29130
14801.52727	0.20051
14797.66969	0.14097
14793.81211	0.42856
14789.95453	0.88030
14786.09695	0.71956
14782.23937	0.43745
14778.38180	0.33202
14774.52422	0.25362
14770.66664	0.27501
14766.80906	0.38911
14762.95148	0.51415
14759.09391	0.67223
14755.23633	0.54019
14751.37875	0.16382
14747.52117	0.07075
14743.66359	0.33903
14739.80602	0.39525
14735.94844	0.19263
14732.09086	0.23623
14728.23328	0.45327
14724.37570	0.38932
14720.51812	0.22234
14716.66055	0.27028
14712.80297	0.29653
14708.94539	0.30536
14705.08781	0.38437
14701.23023	0.54056
14697.37266	0.45453
14693.51508	0.15109
14689.65750	0.18334
14685.79992	0.32075
14681.94234	0.41183
14678.08477	0.46747
14674.22719	0.29422
14670.36961	0.21554
14666.51203	0.35118
14662.65445	0.44039
14658.79687	0.40636
14654.93930	0.46012
14651.08172	0.51226
14647.22414	0.43887
14643.36656	0.35911
14639.50898	0.28273
14635.65141	0.23324
14631.79383	0.24819
14627.93625	0.50208
14624.07867	0.68364
14620.22109	0.49488
14616.36352	0.36916
14612.50594	0.44937
14608.64836	0.44713
14604.79078	0.46753
14600.93320	0.60843
14597.07562	0.52317
14593.21805	0.42862
14589.36047	0.48327
14585.50289	0.44898
14581.64531	0.34385
14577.78773	0.33403
14573.93016	0.35913
14570.07258	0.33093
14566.21500	0.22036
14562.35742	0.22990
14558.49984	0.40390
14554.64227	0.35961
14550.78469	0.18656
14546.92711	0.29475
14543.06953	0.36314
14539.21195	0.28119
14535.35437	0.24022
14531.49680	0.28377
14527.63922	0.50691
14523.78164	0.53502
14519.92406	0.38033
14516.06648	0.36884
14512.20891	0.45488
14508.35133	0.53086
14504.49375	0.50959
14500.63617	0.31155
14496.77859	0.19504
14492.92102	0.25254
14489.06344	0.36933
14485.20586	0.38262
14481.34828	0.30112
14477.49070	0.25330
14473.63312	0.29816
14469.77555	0.39861
14465.91797	0.53583
14462.06039	0.52644
14458.20281	0.38233
14454.34523	0.34813
14450.48766	0.39449
14446.63008	0.41930
14442.77250	0.33896
14438.91492	0.26841
14435.05734	0.39055
14431.19977	0.44771
14427.34219	0.27507
14423.48461	0.18708
14419.62703	0.28645
14415.76945	0.39100
14411.91187	0.50934
14408.05430	0.50851
14404.19672	0.39027
14400.33914	0.27042
14396.48156	0.21925
14392.62398	0.27861
14388.76641	0.39416
14384.90883	0.37957
14381.05125	0.28978
14377.19367	0.35799
14373.33609	0.40938
14369.47852	0.34949
14365.62094	0.43651
14361.76336	0.51296
14357.90578	0.40777
14354.04820	0.28211
14350.19062	0.24595
14346.33305	0.31031
14342.47547	0.36212
14338.61789	0.41065
14334.76031	0.48627
14330.90273	0.42707
14327.04516	0.30464
14323.18758	0.27166
14319.33000	0.30761
14315.47242	0.33975
14311.61484	0.36069
14307.75727	0.36726
14303.89969	0.35566
14300.04211	0.35478
14296.18453	0.40594
14292.32695	0.50187
14288.46937	0.52625
14284.61180	0.35732
14280.75422	0.23457
14276.89664	0.43797
14273.03906	0.63019
14269.18148	0.51922
14265.32391	0.37714
14261.46633	0.28898
14257.60875	0.25705
14253.75117	0.28378
14249.89359	0.33580
14246.03602	0.36475
14242.17844	0.33464
14238.32086	0.30665
14234.46328	0.32566
14230.60570	0.24559
14226.74812	0.13664
14222.89055	0.28449
14219.03297	0.46711
14215.17539	0.40337
14211.31781	0.33502
14207.46023	0.36876
14203.60266	0.38344
14199.74508	0.41892
14195.88750	0.44501
14192.02992	0.37142
14188.17234	0.33274
14184.31477	0.38380
14180.45719	0.39800
14176.59961	0.35439
14172.74203	0.33102
14168.88445	0.33373
14165.02687	0.41965
14161.16930	0.52602
14157.31172	0.48255
14153.45414	0.37664
14149.59656	0.31888
14145.73898	0.26153
14141.88141	0.25094
14138.02383	0.26535
14134.16625	0.32986
14130.30867	0.38765
14126.45109	0.32090
14122.59352	0.29789
14118.73594	0.33236
14114.87836	0.35383
14111.02078	0.35353
14107.16320	0.30796
14103.30562	0.38607
14099.44805	0.46096
14095.59047	0.35749
14091.73289	0.31380
14087.87531	0.31997
14084.01773	0.31819
14080.16016	0.34464
14076.30258	0.28645
14072.44500	0.25346
14068.58742	0.31094
14064.72984	0.31807
14060.87227	0.30149
14057.01469	0.33581
14053.15711	0.38879
14049.29953	0.39940
14045.44195	0.40179
14041.58437	0.36933
14037.72680	0.28644
14033.86922	0.29720
14030.01164	0.36161
14026.15406	0.39469
14022.29648	0.41045
14018.43891	0.38850
14014.58133	0.34495
14010.72375	0.36910
14006.86617	0.42000
14003.00859	0.40863
13999.15102	0.35474
13995.29344	0.30363
13991.43586	0.30964
13987.57828	0.33712
13983.72070	0.35169
13979.86312	0.39032
13976.00555	0.40078
13972.14797	0.32781
13968.29039	0.28333
13964.43281	0.27829
13960.57523	0.26668
13956.71766	0.33351
13952.86008	0.42566
13949.00250	0.37408
13945.14492	0.35078
13941.28734	0.31494
13937.42977	0.23194
13933.57219	0.24708
13929.71461	0.29832
13925.85703	0.37097
13921.99945	0.43779
13918.14187	0.42932
13914.28430	0.42160
13910.42672	0.37173
13906.56914	0.35561
13902.71156	0.40382
13898.85398	0.44303
13894.99641	0.43311
13891.13883	0.37001
13887.28125	0.33796
13883.42367	0.34248
13879.56609	0.34100
13875.70852	0.34579
13871.85094	0.37119
13867.99336	0.42557
13864.13578	0.44005
13860.27820	0.37577
13856.42062	0.32816
13852.56305	0.30824
13848.70547	0.27602
13844.84789	0.24414
13840.99031	0.25532
13837.13273	0.29117
13833.27516	0.29226
13829.41758	0.27090
13825.56000	0.30959
13821.70242	0.38617
13817.84484	0.39355
13813.98727	0.38245
13810.12969	0.36654
13806.27211	0.34501
13802.41453	0.33965
13798.55695	0.29523
13794.69937	0.27302
13790.84180	0.28192
13786.98422	0.27688
13783.12664	0.33623
13779.26906	0.35005
13775.41148	0.26663
13771.55391	0.25256
13767.69633	0.26177
13763.83875	0.23400
13759.98117	0.22788
13756.12359	0.27193
13752.26602	0.36327
13748.40844	0.39152
13744.55086	0.35588
13740.69328	0.36670
13736.83570	0.36060
13732.97812	0.33793
13729.12055	0.33345
13725.26297	0.32756
13721.40539	0.33569
13717.54781	0.31190
13713.69023	0.26300
13709.83266	0.25139
13705.97508	0.29428
13702.11750	0.36293
13698.25992	0.41528
13694.40234	0.44871
13690.54477	0.43098
13686.68719	0.32952
13682.82961	0.25566
13678.97203	0.26756
13675.11445	0.30892
13671.25687	0.36597
13667.39930	0.40234
13663.54172	0.35802
13659.68414	0.32205
13655.82656	0.33066
13651.96898	0.33949
13648.11141	0.34650
13644.25383	0.30723
13640.39625	0.28047
13636.53867	0.32090
13632.68109	0.35564
13628.82352	0.35835
13624.96594	0.31484
13621.10836	0.28259
13617.25078	0.29546
13613.39320	0.29221
13609.53562	0.30847
13605.67805	0.35146
13601.82047	0.32586
13597.96289	0.29221
13594.10531	0.33595
13590.24773	0.37671
13586.39016	0.35570
13582.53258	0.35137
13578.67500	0.38863
13574.81742	0.37968
13570.95984	0.33227
13567.10227	0.35860
13563.24469	0.38085
13559.38711	0.32164
13555.52953	0.28885
13551.67195	0.29596
13547.81437	0.32346
13543.95680	0.34482
13540.09922	0.32501
13536.24164	0.34215
13532.38406	0.34934
13528.52648	0.33223
13524.66891	0.36508
13520.81133	0.38203
13516.95375	0.37499
13513.09617	0.36899
13509.23859	0.32954
13505.38102	0.28620
13501.52344	0.29205
13497.66586	0.35563
13493.80828	0.37908
13489.95070	0.35117
13486.09312	0.35503
13482.23555	0.34620
13478.37797	0.35017
13474.52039	0.37120
13470.66281	0.37189
13466.80523	0.39105
13462.94766	0.39259
13459.09008	0.38927
13455.23250	0.36371
13451.37492	0.29679
13447.51734	0.30238
13443.65977	0.32258
13439.80219	0.30470
13435.94461	0.33991
13432.08703	0.39725
13428.22945	0.39166
13424.37187	0.34991
13420.51430	0.36367
13416.65672	0.36746
13412.79914	0.34401
13408.94156	0.38705
13405.08398	0.40886
13401.22641	0.36850
13397.36883	0.35596
13393.51125	0.38472
13389.65367	0.36938
13385.79609	0.30738
13381.93852	0.31775
13378.08094	0.36954
13374.22336	0.36831
13370.36578	0.34086
13366.50820	0.32749
13362.65062	0.33926
13358.79305	0.34789
13354.93547	0.33914
13351.07789	0.31992
13347.22031	0.32345
13343.36273	0.38832
13339.50516	0.45219
13335.64758	0.43219
13331.79000	0.33349
13327.93242	0.26551
13324.07484	0.27661
13320.21727	0.30325
13316.35969	0.32688
13312.50211	0.33299
13308.64453	0.34116
13304.78695	0.37122
13300.92937	0.37185
13297.07180	0.36555
13293.21422	0.37029
13289.35664	0.36361
13285.49906	0.35797
13281.64148	0.33205
13277.78391	0.29489
13273.92633	0.29773
13270.06875	0.32087
13266.21117	0.32909
13262.35359	0.31944
13258.49602	0.28030
13254.63844	0.26028
13250.78086	0.29752
13246.92328	0.31452
13243.06570	0.32476
13239.20812	0.38448
13235.35055	0.40626
13231.49297	0.37498
13227.63539	0.34999
13223.77781	0.32595
13219.92023	0.29624
13216.06266	0.26593
13212.20508	0.27116
13208.34750	0.30982
13204.48992	0.32928
13200.63234	0.36610
13196.77477	0.40577
13192.91719	0.37364
13189.05961	0.30920
13185.20203	0.29583
13181.34445	0.34304
13177.48687	0.38461
13173.62930	0.36971
13169.77172	0.33275
13165.91414	0.32708
13162.05656	0.35221
13158.19898	0.36321
13154.34141	0.34596
13150.48383	0.32928
13146.62625	0.33103
13142.76867	0.33956
13138.91109	0.34020
13135.05352	0.33264
13131.19594	0.34201
13127.33836	0.36145
13123.48078	0.34389
13119.62320	0.32854
13115.76562	0.33655
13111.90805	0.34259
13108.05047	0.34686
13104.19289	0.32196
13100.33531	0.30986
13096.47773	0.33013
13092.62016	0.32007
13088.76258	0.31567
13084.90500	0.34039
13081.04742	0.34354
13077.18984	0.33821
13073.33227	0.35900
13069.47469	0.38855
13065.61711	0.39285
13061.75953	0.34989
13057.90195	0.31217
13054.04437	0.32888
13050.18680	0.35366
13046.32922	0.36661
13042.47164	0.37154
13038.61406	0.34202
13034.75648	0.32421
13030.89891	0.33816
13027.04133	0.33462
13023.18375	0.31796
13019.32617	0.33126
13015.46859	0.34761
13011.61102	0.30489
13007.75344	0.26170
13003.89586	0.29899
13000.03828	0.35241
12996.18070	0.32721
12992.32312	0.29771
12988.46555	0.34146
12984.60797	0.39165
12980.75039	0.41160
12976.89281	0.39432
12973.03523	0.35444
12969.17766	0.35208
12965.32008	0.37553
12961.46250	0.37393
12957.60492	0.34264
12953.74734	0.33231
12949.88977	0.35469
12946.03219	0.34856
12942.17461	0.32653
12938.31703	0.31060
12934.45945	0.30089
12930.60187	0.30219
12926.74430	0.28562
12922.88672	0.27333
12919.02914	0.31136
12915.17156	0.36836
12911.31398	0.38354
12907.45641	0.36264
12903.59883	0.37124
12899.74125	0.39116
12895.88367	0.36582
12892.02609	0.36074
12888.16852	0.37876
12884.31094	0.33345
12880.45336	0.29294
12876.59578	0.31240
12872.73820	0.32841
12868.88062	0.32598
12865.02305	0.33478
12861.16547	0.34462
12857.30789	0.33521
12853.45031	0.32415
12849.59273	0.34034
12845.73516	0.36190
12841.87758	0.36478
12838.02000	0.36257
12834.16242	0.36536
12830.30484	0.37524
12826.44727	0.36849
12822.58969	0.36252
12818.73211	0.40183
12814.87453	0.41543
12811.01695	0.37345
12807.15937	0.35826
12803.30180	0.37269
12799.44422	0.35692
12795.58664	0.32894
12791.72906	0.34340
12787.87148	0.36031
12784.01391	0.35528
12780.15633	0.38851
12776.29875	0.41238
12772.44117	0.39539
12768.58359	0.34021
12764.72602	0.27392
12760.86844	0.30582
12757.01086	0.37163
12753.15328	0.37952
12749.29570	0.38243
12745.43812	0.34847
12741.58055	0.32828
12737.72297	0.36378
12733.86539	0.36192
12730.00781	0.33793
12726.15023	0.32642
12722.29266	0.32627
12718.43508	0.36387
12714.57750	0.39843
12710.71992	0.38034
12706.86234	0.36876
12703.00477	0.38906
12699.14719	0.38351
12695.28961	0.36233
12691.43203	0.35983
12687.57445	0.36497
12683.71687	0.35718
12679.85930	0.34040
12676.00172	0.34882
12672.14414	0.37355
12668.28656	0.37115
12664.42898	0.35869
12660.57141	0.36963
12656.71383	0.39084
12652.85625	0.38901
12648.99867	0.36034
12645.14109	0.31651
12641.28352	0.30203
12637.42594	0.32475
12633.56836	0.33640
12629.71078	0.33773
12625.85320	0.36346
12621.99562	0.37064
12618.13805	0.32150
12614.28047	0.30127
12610.42289	0.32996
12606.56531	0.33375
12602.70773	0.34290
12598.85016	0.37238
12594.99258	0.36445
12591.13500	0.32367
12587.27742	0.30460
12583.41984	0.31697
12579.56227	0.32346
12575.70469	0.33731
12571.84711	0.36869
12567.98953	0.38854
12564.13195	0.39330
12560.27437	0.36606
12556.41680	0.31729
12552.55922	0.31193
12548.70164	0.32868
12544.84406	0.30660
12540.98648	0.29182
12537.12891	0.32256
12533.27133	0.34481
12529.41375	0.34001
12525.55617	0.35290
12521.69859	0.36997
12517.84102	0.34706
12513.98344	0.32329
12510.12586	0.35507
12506.26828	0.38666
12502.41070	0.36502
12498.55312	0.34385
12494.69555	0.31832
12490.83797	0.30258
12486.98039	0.32802
12483.12281	0.32821
12479.26523	0.34858
12475.40766	0.42295
12471.55008	0.43270
12467.69250	0.36692
12463.83492	0.31061
12459.97734	0.30519
12456.11977	0.33314
12452.26219	0.34534
12448.40461	0.34451
12444.54703	0.36110
12440.68945	0.36098
12436.83187	0.31700
12432.97430	0.31540
12429.11672	0.33221
12425.25914	0.32020
12421.40156	0.35824
12417.54398	0.37273
12413.68641	0.32917
12409.82883	0.30515
12405.97125	0.30937
12402.11367	0.33060
12398.25609	0.33325
12394.39852	0.34288
12390.54094	0.37611
12386.68336	0.34748
12382.82578	0.29815
12378.96820	0.29902
12375.11062	0.31948
12371.25305	0.32459
12367.39547	0.31614
12363.53789	0.31247
12359.68031	0.32090
12355.82273	0.33282
12351.96516	0.34222
12348.10758	0.33809
12344.25000	0.30759
12340.39242	0.28663
12336.53484	0.30938
12332.67727	0.34179
12328.81969	0.36642
12324.96211	0.38392
12321.10453	0.35097
12317.24695	0.31556
12313.38937	0.33549
12309.53180	0.35413
12305.67422	0.31958
12301.81664	0.27196
12297.95906	0.28456
12294.10148	0.33328
12290.24391	0.34993
12286.38633	0.34111
12282.52875	0.32940
12278.67117	0.33615
12274.81359	0.35241
12270.95602	0.34465
12267.09844	0.33046
12263.24086	0.31732
12259.38328	0.30180
12255.52570	0.32339
12251.66812	0.36422
12247.81055	0.35819
12243.95297	0.32135
12240.09539	0.31375
12236.23781	0.34303
12232.38023	0.37705
12228.52266	0.37481
12224.66508	0.34902
12220.80750	0.33628
12216.94992	0.33519
12213.09234	0.33612
12209.23477	0.32953
12205.37719	0.31990
12201.51961	0.33171
12197.66203	0.35495
12193.80445	0.35438
12189.94687	0.34942
12186.08930	0.36593
12182.23172	0.36028
12178.37414	0.33090
12174.51656	0.33343
12170.65898	0.35340
12166.80141	0.32963
12162.94383	0.29625
12159.08625	0.32017
12155.22867	0.33998
12151.37109	0.30971
12147.51352	0.30037
12143.65594	0.31713
12139.79836	0.33786
12135.94078	0.37070
12132.08320	0.37949
12128.22562	0.35993
12124.36805	0.36073
12120.51047	0.35567
12116.65289	0.32855
12112.79531	0.33010
12108.93773	0.34562
12105.08016	0.34395
12101.22258	0.34800
12097.36500	0.34687
12093.50742	0.32880
12089.64984	0.32337
12085.79227	0.32995
12081.93469	0.34291
12078.07711	0.35118
12074.21953	0.33770
12070.36195	0.32708
12066.50437	0.31860
12062.64680	0.30398
12058.78922	0.29905
12054.93164	0.29548
12051.07406	0.29984
12047.21648	0.31944
12043.35891	0.34426
12039.50133	0.35177
12035.64375	0.33521
12031.78617	0.32893
12027.92859	0.33398
12024.07102	0.33551
12020.21344	0.33523
12016.35586	0.34532
12012.49828	0.35797
12008.64070	0.34401
12004.78312	0.33272
12000.92555	0.34133
11997.06797	0.33179
11993.21039	0.31109
11989.35281	0.29892
11985.49523	0.29118
11981.63766	0.30329
11977.78008	0.35511
11973.92250	0.37559
11970.06492	0.33772
11966.20734	0.32889
11962.34977	0.33859
11958.49219	0.33140
11954.63461	0.32738
11950.77703	0.31276
11946.91945	0.29867
11943.06187	0.31137
11939.20430	0.34948
11935.34672	0.38008
11931.48914	0.37999
11927.63156	0.36179
11923.77398	0.33354
11919.91641	0.32492
11916.05883	0.31901
11912.20125	0.30173
11908.34367	0.32521
11904.48609	0.35020
11900.62852	0.34131
11896.77094	0.35431
11892.91336	0.38505
11889.05578	0.38295
11885.19820	0.35311
11881.34062	0.34389
11877.48305	0.34086
11873.62547	0.31570
11869.76789	0.31202
11865.91031	0.34416
11862.05273	0.36283
11858.19516	0.35368
11854.33758	0.35469
11850.48000	0.35804
11846.62242	0.35410
11842.76484	0.36729
11838.90727	0.36799
11835.04969	0.34987
11831.19211	0.35385
11827.33453	0.33898
11823.47695	0.30766
11819.61937	0.31893
11815.76180	0.33158
11811.90422	0.31819
11808.04664	0.31702
11804.18906	0.32582
11800.33148	0.33093
11796.47391	0.31535
11792.61633	0.28140
11788.75875	0.28279
11784.90117	0.31856
11781.04359	0.33065
11777.18602	0.32410
11773.32844	0.32974
11769.47086	0.34803
11765.61328	0.35850
11761.75570	0.34145
11757.89812	0.32341
11754.04055	0.32321
11750.18297	0.34092
11746.32539	0.35666
11742.46781	0.33731
11738.61023	0.31192
11734.75266	0.30836
11730.89508	0.32152
11727.03750	0.34353
11723.17992	0.33482
11719.32234	0.32314
11715.46477	0.33680
11711.60719	0.33331
11707.74961	0.33004
11703.89203	0.33600
11700.03445	0.32833
11696.17687	0.33201
11692.31930	0.34318
11688.46172	0.34615
11684.60414	0.34591
11680.74656	0.34850
11676.88898	0.36430
11673.03141	0.37332
11669.17383	0.36404
11665.31625	0.34187
11661.45867	0.32057
11657.60109	0.32886
11653.74352	0.34357
11649.88594	0.34230
11646.02836	0.34007
11642.17078	0.33842
11638.31320	0.34908
11634.45562	0.35644
11630.59805	0.34792
11626.74047	0.34757
11622.88289	0.34225
11619.02531	0.32969
11615.16773	0.33211
11611.31016	0.34270
11607.45258	0.33212
11603.59500	0.30556
11599.73742	0.31597
11595.87984	0.33339
11592.02227	0.31007
11588.16469	0.31112
11584.30711	0.34487
11580.44953	0.34413
11576.59195	0.30991
11572.73437	0.31239
11568.87680	0.35596
11565.01922	0.35417
11561.16164	0.33264
11557.30406	0.34451
11553.44648	0.34870
11549.58891	0.33775
11545.73133	0.33042
11541.87375	0.32286
11538.01617	0.31961
11534.15859	0.32869
11530.30102	0.33765
11526.44344	0.32980
11522.58586	0.33124
11518.72828	0.34673
11514.87070	0.33571
11511.01312	0.31178
11507.15555	0.31321
11503.29797	0.32743
11499.44039	0.33899
11495.58281	0.33952
11491.72523	0.33153
11487.86766	0.33131
11484.01008	0.32932
11480.15250	0.32830
11476.29492	0.34121
11472.43734	0.34401
11468.57977	0.32524
11464.72219	0.31061
11460.86461	0.32493
11457.00703	0.35093
11453.14945	0.36269
11449.29187	0.35689
11445.43430	0.32930
11441.57672	0.29806
11437.71914	0.29519
11433.86156	0.31351
11430.00398	0.33459
11426.14641	0.35265
11422.28883	0.35505
11418.43125	0.34536
11414.57367	0.34764
11410.71609	0.34133
11406.85852	0.32128
11403.00094	0.32931
11399.14336	0.34865
11395.28578	0.34013
11391.42820	0.33091
11387.57062	0.33489
11383.71305	0.33161
11379.85547	0.33244
11375.99789	0.34168
11372.14031	0.34055
11368.28273	0.34034
11364.42516	0.35115
11360.56758	0.35450
11356.71000	0.35121
11352.85242	0.35545
11348.99484	0.34457
11345.13727	0.31801
11341.27969	0.31772
11337.42211	0.33232
11333.56453	0.33200
11329.70695	0.33773
11325.84937	0.34050
11321.99180	0.31969
11318.13422	0.31180
11314.27664	0.32554
11310.41906	0.33426
11306.56148	0.33602
11302.70391	0.33187
11298.84633	0.34009
11294.98875	0.36012
11291.13117	0.35275
11287.27359	0.33582
11283.41602	0.33197
11279.55844	0.33374
11275.70086	0.33854
11271.84328	0.34042
11267.98570	0.34281
11264.12812	0.33620
11260.27055	0.32515
11256.41297	0.32839
11252.55539	0.33371
11248.69781	0.33797
11244.84023	0.33613
11240.98266	0.33896
11237.12508	0.35146
11233.26750	0.33696
11229.40992	0.32222
11225.55234	0.32932
11221.69477	0.32001
11217.83719	0.31099
11213.97961	0.32787
11210.12203	0.34817
11206.26445	0.34965
11202.40687	0.34288
11198.54930	0.34441
11194.69172	0.34266
11190.83414	0.33037
11186.97656	0.31399
11183.11898	0.30586
11179.26141	0.32187
11175.40383	0.34066
11171.54625	0.33847
11167.68867	0.33043
11163.83109	0.32578
11159.97352	0.32771
11156.11594	0.33518
11152.25836	0.33732
11148.40078	0.32965
11144.54320	0.31986
11140.68562	0.33179
11136.82805	0.34809
11132.97047	0.33874
11129.11289	0.32847
11125.25531	0.32786
11121.39773	0.32595
11117.54016	0.32629
11113.68258	0.33253
11109.82500	0.34474
11105.96742	0.34578
11102.10984	0.34232
11098.25227	0.34683
11094.39469	0.33865
11090.53711	0.33251
11086.67953	0.33880
11082.82195	0.33402
11078.96437	0.33036
11075.10680	0.34074
11071.24922	0.34773
11067.39164	0.33851
11063.53406	0.32915
11059.67648	0.33474
11055.81891	0.33943
11051.96133	0.34053
11048.10375	0.34490
11044.24617	0.34243
11040.38859	0.33637
11036.53102	0.33442
11032.67344	0.33775
11028.81586	0.34706
11024.95828	0.34484
11021.10070	0.32640
11017.24312	0.32350
11013.38555	0.33510
11009.52797	0.33023
11005.67039	0.32445
11001.81281	0.34244
10997.95523	0.35397
10994.09766	0.34078
10990.24008	0.33910
10986.38250	0.34747
10982.52492	0.33482
10978.66734	0.32254
10974.80977	0.33171
10970.95219	0.33648
10967.09461	0.31564
10963.23703	0.30917
10959.37945	0.32588
10955.52187	0.31532
10951.66430	0.30583
10947.80672	0.32818
10943.94914	0.34161
10940.09156	0.33710
10936.23398	0.32601
10932.37641	0.31369
10928.51883	0.31479
10924.66125	0.32443
10920.80367	0.32579
10916.94609	0.31761
10913.08852	0.32440
10909.23094	0.33917
10905.37336	0.33666
10901.51578	0.34154
10897.65820	0.34867
10893.80062	0.33425
10889.94305	0.32473
10886.08547	0.32749
10882.22789	0.33287
10878.37031	0.33141
10874.51273	0.32462
10870.65516	0.33116
10866.79758	0.33568
10862.94000	0.33652
10859.08242	0.33722
10855.22484	0.32630
10851.36727	0.33054
10847.50969	0.34089
10843.65211	0.33600
10839.79453	0.33796
10835.93695	0.33776
10832.07937	0.33828
10828.22180	0.34684
10824.36422	0.33112
10820.50664	0.31562
10816.64906	0.32672
10812.79148	0.33047
10808.93391	0.32048
10805.07633	0.31310
10801.21875	0.31867
10797.36117	0.32762
10793.50359	0.32551
10789.64602	0.32831
10785.78844	0.33221
10781.93086	0.32586
10778.07328	0.33269
10774.21570	0.35168
10770.35812	0.34997
10766.50055	0.33790
10762.64297	0.33752
10758.78539	0.33354
10754.92781	0.33070
10751.07023	0.33232
10747.21266	0.32613
10743.35508	0.32111
10739.49750	0.31908
10735.63992	0.32296
10731.78234	0.32968
10727.92477	0.33293
10724.06719	0.33104
10720.20961	0.31832
10716.35203	0.32084
10712.49445	0.33137
10708.63687	0.32731
10704.77930	0.33743
10700.92172	0.34499
10697.06414	0.33193
10693.20656	0.32952
10689.34898	0.33037
10685.49141	0.32464
10681.63383	0.31850
10677.77625	0.30769
10673.91867	0.30866
10670.06109	0.32776
10666.20352	0.33772
10662.34594	0.33709
10658.48836	0.34405
10654.63078	0.34329
10650.77320	0.32829
10646.91562	0.32540
10643.05805	0.32908
10639.20047	0.32268
10635.34289	0.32160
10631.48531	0.32663
10627.62773	0.32440
10623.77016	0.32397
10619.91258	0.32785
10616.05500	0.32474
10612.19742	0.32120
10608.33984	0.32151
10604.48227	0.32706
10600.62469	0.34551
10596.76711	0.35093
10592.90953	0.33199
10589.05195	0.32300
10585.19437	0.32378
10581.33680	0.32145
10577.47922	0.32648
10573.62164	0.33202
10569.76406	0.32520
10565.90648	0.32438
10562.04891	0.33999
10558.19133	0.34385
10554.33375	0.33535
10550.47617	0.33290
10546.61859	0.32802
10542.76102	0.32651
10538.90344	0.33246
10535.04586	0.33898
10531.18828	0.34499
10527.33070	0.33533
10523.47312	0.32257
10519.61555	0.32805
10515.75797	0.33772
10511.90039	0.34093
10508.04281	0.33900
10504.18523	0.34204
10500.32766	0.34715
10496.47008	0.33979
10492.61250	0.33375
10488.75492	0.32813
10484.89734	0.31759
10481.03977	0.32434
10477.18219	0.33888
10473.32461	0.34477
10469.46703	0.34447
10465.60945	0.33057
10461.75187	0.31843
10457.89430	0.32153
10454.03672	0.32040
10450.17914	0.31580
10446.32156	0.31599
10442.46398	0.31934
10438.60641	0.32751
10434.74883	0.32703
10430.89125	0.31970
10427.03367	0.32008
10423.17609	0.31810
10419.31852	0.31351
10415.46094	0.31300
10411.60336	0.31731
10407.74578	0.32623
10403.88820	0.32803
10400.03062	0.32474
10396.17305	0.32258
10392.31547	0.31458
10388.45789	0.30486
10384.60031	0.30662
10380.74273	0.31915
10376.88516	0.31752
10373.02758	0.30537
10369.17000	0.30893
10365.31242	0.31569
10361.45484	0.31655
10357.59727	0.31705
10353.73969	0.31710
10349.88211	0.32193
10346.02453	0.32440
10342.16695	0.32308
10338.30937	0.32677
10334.45180	0.33029
10330.59422	0.32794
10326.73664	0.31772
10322.87906	0.30997
10319.02148	0.32282
10315.16391	0.34200
10311.30633	0.34086
10307.44875	0.32774
10303.59117	0.31888
10299.73359	0.31822
10295.87602	0.32427
10292.01844	0.32492
10288.16086	0.32481
10284.30328	0.33036
10280.44570	0.32858
10276.58812	0.32499
10272.73055	0.32599
10268.87297	0.32366
10265.01539	0.32672
10261.15781	0.33603
10257.30023	0.33621
10253.44266	0.32591
10249.58508	0.31774
10245.72750	0.31996
10241.86992	0.32279
10238.01234	0.32105
10234.15477	0.32457
10230.29719	0.32970
10226.43961	0.33031
10222.58203	0.32898
10218.72445	0.32837
10214.86687	0.32754
10211.00930	0.32223
10207.15172	0.32234
10203.29414	0.32901
10199.43656	0.32920
10195.57898	0.33175
10191.72141	0.33606
10187.86383	0.33033
10184.00625	0.32435
10180.14867	0.32340
10176.29109	0.32674
10172.43352	0.33291
10168.57594	0.33199
10164.71836	0.32538
10160.86078	0.32094
10157.00320	0.32298
10153.14562	0.33165
10149.28805	0.33643
10145.43047	0.33468
10141.57289	0.33415
10137.71531	0.33100
10133.85773	0.32357
10130.00016	0.32152
10126.14258	0.32523
10122.28500	0.32603
10118.42742	0.32099
10114.56984	0.31924
10110.71227	0.32802
10106.85469	0.33201
10102.99711	0.32110
10099.13953	0.31447
10095.28195	0.32123
10091.42437	0.32517
10087.56680	0.32251
10083.70922	0.32612
10079.85164	0.33180
10075.99406	0.32969
10072.13648	0.32729
10068.27891	0.33109
10064.42133	0.33612
10060.56375	0.33688
10056.70617	0.33365
10052.84859	0.32686
10048.99102	0.31888
10045.13344	0.31903
10041.27586	0.32348
10037.41828	0.32477
10033.56070	0.33071
10029.70312	0.33549
10025.84555	0.33394
10021.98797	0.33225
10018.13039	0.32633
10014.27281	0.32450
10010.41523	0.33165
10006.55766	0.33315
10002.70008	0.32839
9998.84250	0.32628
9994.98492	0.32596
9991.12734	0.32363
9987.26977	0.32391
9983.41219	0.32366
9979.55461	0.32028
9975.69703	0.32728
9971.83945	0.33579
9967.98187	0.33586
9964.12430	0.33946
9960.26672	0.34105
9956.40914	0.33519
9952.55156	0.32917
9948.69398	0.32244
9944.83641	0.31537
9940.97883	0.31673
9937.12125	0.32770
9933.26367	0.33350
9929.40609	0.32940
9925.54852	0.32672
9921.69094	0.32709
9917.83336	0.32498
9913.97578	0.32657
9910.11820	0.33436
9906.26062	0.33245
9902.40305	0.32348
9898.54547	0.32584
9894.68789	0.32966
9890.83031	0.32474
9886.97273	0.32098
9883.11516	0.32015
9879.25758	0.31919
9875.40000	0.31983
9871.54242	0.32439
9867.68484	0.32836
9863.82727	0.32703
9859.96969	0.32668
9856.11211	0.32614
9852.25453	0.32069
9848.39695	0.31907
9844.53937	0.32127
9840.68180	0.31820
9836.82422	0.31430
9832.96664	0.31713
9829.10906	0.32150
9825.25148	0.32249
9821.39391	0.32523
9817.53633	0.32842
9813.67875	0.32257
9809.82117	0.31500
9805.96359	0.31679
9802.10602	0.31942
9798.24844	0.31872
9794.39086	0.31898
9790.53328	0.31928
9786.67570	0.32185
9782.81812	0.32403
9778.96055	0.32269
9775.10297	0.32468
9771.24539	0.32962
9767.38781	0.32872
9763.53023	0.32168
9759.67266	0.31763
9755.81508	0.31909
9751.95750	0.32166
9748.09992	0.32587
9744.24234	0.32785
9740.38477	0.32409
9736.52719	0.32541
9732.66961	0.33286
9728.81203	0.33334
9724.95445	0.32955
9721.09687	0.33092
9717.23930	0.33293
9713.38172	0.32950
9709.52414	0.32611
9705.66656	0.32850
9701.80898	0.33013
9697.95141	0.32943
9694.09383	0.32836
9690.23625	0.32145
9686.37867	0.31744
9682.52109	0.32337
9678.66352	0.32908
9674.80594	0.33156
9670.94836	0.33099
9667.09078	0.32916
9663.23320	0.32867
9659.37562	0.32458
9655.51805	0.32161
9651.66047	0.32248
9647.80289	0.32320
9643.94531	0.32755
9640.08773	0.33298
9636.23016	0.33686
9632.37258	0.33727
9628.51500	0.33128
9624.65742	0.32714
9620.79984	0.32762
9616.94227	0.33104
9613.08469	0.33421
9609.22711	0.33236
9605.36953	0.33413
9601.51195	0.33712
9597.65437	0.33297
9593.79680	0.33550
9589.93922	0.34511
9586.08164	0.34421
9582.22406	0.33877
9578.36648	0.34072
9574.50891	0.34194
9570.65133	0.34141
9566.79375	0.34529
9562.93617	0.34788
9559.07859	0.34709
9555.22102	0.34602
9551.36344	0.34359
9547.50586	0.34239
9543.64828	0.34576
9539.79070	0.34904
9535.93312	0.34840
9532.07555	0.34880
9528.21797	0.35165
9524.36039	0.35226
9520.50281	0.35335
9516.64523	0.35676
9512.78766	0.35648
9508.93008	0.35719
9505.07250	0.36137
9501.21492	0.35995
9497.35734	0.35921
9493.49977	0.36072
9489.64219	0.35855
9485.78461	0.36016
9481.92703	0.36255
9478.06945	0.36417
9474.21187	0.36506
9470.35430	0.36319
9466.49672	0.36813
9462.63914	0.36984
9458.78156	0.36741
9454.92398	0.37138
9451.06641	0.36693
9447.20883	0.35988
9443.35125	0.36144
9439.49367	0.36403
9435.63609	0.36754
9431.77852	0.36983
9427.92094	0.37148
9424.06336	0.37521
9420.20578	0.37547
9416.34820	0.37213
9412.49062	0.37253
9408.63305	0.37407
9404.77547	0.37174
9400.91789	0.37379
9397.06031	0.37753
9393.20273	0.37684
9389.34516	0.37772
9385.48758	0.37959
9381.63000	0.38037
9377.77242	0.38054
9373.91484	0.38213
9370.05727	0.38348
9366.19969	0.38163
9362.34211	0.38297
9358.48453	0.38254
9354.62695	0.37510
9350.76937	0.37313
9346.91180	0.37988
9343.05422	0.38413
9339.19664	0.38043
9335.33906	0.37899
9331.48148	0.38483
9327.62391	0.38802
9323.76633	0.38897
9319.90875	0.39153
9316.05117	0.39194
9312.19359	0.38913
9308.33602	0.38412
9304.47844	0.38547
9300.62086	0.39291
9296.76328	0.39191
9292.90570	0.38753
9289.04812	0.38977
9285.19055	0.39362
9281.33297	0.39682
9277.47539	0.39839
9273.61781	0.39851
9269.76023	0.40135
9265.90266	0.40390
9262.04508	0.40201
9258.18750	0.40137
9254.32992	0.40151
9250.47234	0.39948
9246.61477	0.40394
9242.75719	0.40869
9238.89961	0.40382
9235.04203	0.40107
9231.18445	0.40547
9227.32687	0.41102
9223.46930	0.41130
9219.61172	0.40523
9215.75414	0.40383
9211.89656	0.40650
9208.03898	0.40586
9204.18141	0.40764
9200.32383	0.41053
9196.46625	0.41193
9192.60867	0.41461
9188.75109	0.41272
9184.89352	0.41130
9181.03594	0.41567
9177.17836	0.41667
9173.32078	0.41566
9169.46320	0.41626
9165.60562	0.41647
9161.74805	0.41512
9157.89047	0.41448
9154.03289	0.41832
9150.17531	0.41958
9146.31773	0.41932
9142.46016	0.42129
9138.60258	0.41847
9134.74500	0.41648
9130.88742	0.41861
9127.02984	0.42087
9123.17227	0.42347
9119.31469	0.42501
9115.45711	0.42781
9111.59953	0.42831
9107.74195	0.42647
9103.88437	0.43010
9100.02680	0.43267
9096.16922	0.43093
9092.31164	0.42991
9088.45406	0.42910
9084.59648	0.42728
9080.73891	0.42393
9076.88133	0.42408
9073.02375	0.42811
9069.16617	0.42909
9065.30859	0.42818
9061.45102	0.42776
9057.59344	0.42745
9053.73586	0.42757
9049.87828	0.42994
9046.02070	0.43349
9042.16312	0.43345
9038.30555	0.43278
9034.44797	0.43163
9030.59039	0.42931
9026.73281	0.43231
9022.87523	0.43501
9019.01766	0.43337
9015.16008	0.43393
9011.30250	0.43602
9007.44492	0.43787
9003.58734	0.43897
8999.72977	0.43886
8995.87219	0.44123
8992.01461	0.44383
8988.15703	0.44122
8984.29945	0.43903
8980.44187	0.44005
8976.58430	0.43904
8972.72672	0.43868
8968.86914	0.44070
8965.01156	0.44146
8961.15398	0.44129
8957.29641	0.44183
8953.43883	0.44267
8949.58125	0.44198
8945.72367	0.44138
8941.86609	0.44340
8938.00852	0.44614
8934.15094	0.44723
8930.29336	0.44628
8926.43578	0.44517
8922.57820	0.44710
8918.72062	0.45020
8914.86305	0.44969
8911.00547	0.44906
8907.14789	0.44998
8903.29031	0.44855
8899.43273	0.44891
8895.57516	0.45056
8891.71758	0.44935
8887.86000	0.45113
8884.00242	0.45473
8880.14484	0.45373
8876.28727	0.45192
8872.42969	0.45133
8868.57211	0.45044
8864.71453	0.45182
8860.85695	0.45457
8856.99937	0.45498
8853.14180	0.45429
8849.28422	0.45430
8845.42664	0.45271
8841.56906	0.45068
8837.71148	0.45357
8833.85391	0.45786
8829.99633	0.45802
8826.13875	0.45601
8822.28117	0.45315
8818.42359	0.45293
8814.56602	0.45658
8810.70844	0.45688
8806.85086	0.45279
8802.99328	0.45198
8799.13570	0.45629
8795.27812	0.45875
8791.42055	0.45654
8787.56297	0.45460
8783.70539	0.45702
8779.84781	0.46069
8775.99023	0.45900
8772.13266	0.45387
8768.27508	0.45269
8764.41750	0.45508
8760.55992	0.45709
8756.70234	0.45817
8752.84477	0.45849
8748.98719	0.45862
8745.12961	0.45954
8741.27203	0.46116
8737.41445	0.46065
8733.55687	0.45897
8729.69930	0.46075
8725.84172	0.46253
8721.98414	0.46265
8718.12656	0.46294
8714.26898	0.46104
8710.41141	0.46076
8706.55383	0.46229
8702.69625	0.46191
8698.83867	0.46307
8694.98109	0.46312
8691.12352	0.46004
8687.26594	0.45922
8683.40836	0.46114
8679.55078	0.46374
8675.69320	0.46518
8671.83562	0.46492
8667.97805	0.46504
8664.12047	0.46576
8660.26289	0.46584
8656.40531	0.46440
8652.54773	0.46327
8648.69016	0.46313
8644.83258	0.46302
8640.97500	0.46652
8637.11742	0.46925
8633.25984	0.46491
8629.40227	0.46157
8625.54469	0.46439
8621.68711	0.46902
8617.82953	0.46983
8613.97195	0.46812
8610.11437	0.46868
8606.25680	0.46704
8602.39922	0.46458
8598.54164	0.46650
8594.68406	0.46676
8590.82648	0.46482
8586.96891	0.46492
8583.11133	0.46497
8579.25375	0.46519
8575.39617	0.46652
8571.53859	0.46605
8567.68102	0.46408
8563.82344	0.46388
8559.96586	0.46541
8556.10828	0.46647
8552.25070	0.46831
8548.39312	0.47144
8544.53555	0.47089
8540.67797	0.46873
8536.82039	0.46836
8532.96281	0.46510
8529.10523	0.46272
8525.24766	0.46474
8521.39008	0.46539
8517.53250	0.46502
8513.67492	0.46649
8509.81734	0.46834
8505.95977	0.46808
8502.10219	0.46673
8498.24461	0.46828
8494.38703	0.46940
8490.52945	0.46680
8486.67187	0.46593
8482.81430	0.46757
8478.95672	0.46775
8475.09914	0.46732
8471.24156	0.46779
8467.38398	0.46874
8463.52641	0.46931
8459.66883	0.46878
8455.81125	0.46771
8451.95367	0.46646
8448.09609	0.46634
8444.23852	0.46893
8440.38094	0.47118
8436.52336	0.46993
8432.66578	0.46710
8428.80820	0.46585
8424.95062	0.46736
8421.09305	0.46959
8417.23547	0.46923
8413.37789	0.46698
8409.52031	0.46666
8405.66273	0.46824
8401.80516	0.46746
8397.94758	0.46536
8394.09000	0.46551
8390.23242	0.46559
8386.37484	0.46425
8382.51727	0.46329
8378.65969	0.46286
8374.80211	0.46288
8370.94453	0.46349
8367.08695	0.46442
8363.22937	0.46668
8359.37180	0.46830
8355.51422	0.46637
8351.65664	0.46558
8347.79906	0.46512
8343.94148	0.46229
8340.08391	0.46362
8336.22633	0.46654
8332.36875	0.46635
8328.51117	0.46605
8324.65359	0.46571
8320.79602	0.46505
8316.93844	0.46357
8313.08086	0.46352
8309.22328	0.46572
8305.36570	0.46451
8301.50812	0.46112
8297.65055	0.46097
8293.79297	0.46249
8289.93539	0.46321
8286.07781	0.46470
8282.22023	0.46560
8278.36266	0.46387
8274.50508	0.46249
8270.64750	0.46218
8266.78992	0.46269
8262.93234	0.46421
8259.07477	0.46468
8255.21719	0.46394
8251.35961	0.46283
8247.50203	0.46111
8243.64445	0.45938
8239.78687	0.45963
8235.92930	0.46222
8232.07172	0.46409
8228.21414	0.46345
8224.35656	0.46295
8220.49898	0.46312
8216.64141	0.46137
8212.78383	0.46093
8208.92625	0.46296
8205.06867	0.46230
8201.21109	0.46017
8197.35352	0.46052
8193.49594	0.46236
8189.63836	0.46197
8185.78078	0.46046
8181.92320	0.46187
8178.06562	0.46318
8174.20805	0.46246
8170.35047	0.46163
8166.49289	0.46176
8162.63531	0.46307
8158.77773	0.46226
8154.92016	0.46096
8151.06258	0.46197
8147.20500	0.46256
8143.34742	0.46291
8139.48984	0.46319
8135.63227	0.46244
8131.77469	0.46166
8127.91711	0.46207
8124.05953	0.46331
8120.20195	0.46295
8116.34437	0.46118
8112.48680	0.45962
8108.62922	0.45968
8104.77164	0.46174
8100.91406	0.46311
8097.05648	0.46267
8093.19891	0.46169
8089.34133	0.46084
8085.48375	0.45992
8081.62617	0.45930
8077.76859	0.45968
8073.91102	0.46081
8070.05344	0.46176
8066.19586	0.46187
8062.33828	0.46204
8058.48070	0.46175
8054.62312	0.46056
8050.76555	0.45974
8046.90797	0.45960
8043.05039	0.46090
8039.19281	0.46105
8035.33523	0.45965
8031.47766	0.46057
8027.62008	0.46167
8023.76250	0.46144
8019.90492	0.46064
8016.04734	0.45946
8012.18977	0.45983
8008.33219	0.46038
8004.47461	0.45983
8000.61703	0.45961
7996.75945	0.46007
7992.90187	0.46000
7989.04430	0.45912
7985.18672	0.45985
7981.32914	0.46170
7977.47156	0.46139
7973.61398	0.46026
7969.75641	0.46062
7965.89883	0.45972
7962.04125	0.45712
7958.18367	0.45655
7954.32609	0.45672
7950.46852	0.45746
7946.61094	0.46044
7942.75336	0.46172
7938.89578	0.46063
7935.03820	0.45941
7931.18062	0.45828
7927.32305	0.45807
7923.46547	0.45913
7919.60789	0.46080
7915.75031	0.46051
7911.89273	0.45833
7908.03516	0.45723
7904.17758	0.45838
7900.32000	0.46120
7896.46242	0.46117
7892.60484	0.45895
7888.74727	0.45940
7884.88969	0.45935
7881.03211	0.45770
7877.17453	0.45783
7873.31695	0.45959
7869.45937	0.46053
7865.60180	0.45895
7861.74422	0.45745
7857.88664	0.45768
7854.02906	0.45750
7850.17148	0.45713
7846.31391	0.45812
7842.45633	0.45892
7838.59875	0.45748
7834.74117	0.45597
7830.88359	0.45667
7827.02602	0.45807
7823.16844	0.45836
7819.31086	0.45861
7815.45328	0.46007
7811.59570	0.46043
7807.73812	0.45907
7803.88055	0.45810
7800.02297	0.45833
7796.16539	0.45907
7792.30781	0.45822
7788.45023	0.45719
7784.59266	0.45775
7780.73508	0.45799
7776.87750	0.45810
7773.01992	0.45791
7769.16234	0.45750
7765.30477	0.45784
7761.44719	0.45773
7757.58961	0.45734
7753.73203	0.45716
7749.87445	0.45766
7746.01687	0.45806
7742.15930	0.45686
7738.30172	0.45738
7734.44414	0.45972
7730.58656	0.45960
7726.72898	0.45828
7722.87141	0.45818
7719.01383	0.45789
7715.15625	0.45726
7711.29867	0.45781
7707.44109	0.45800
7703.58352	0.45729
7699.72594	0.45798
7695.86836	0.45902
7692.01078	0.45851
7688.15320	0.45795
7684.29562	0.45791
7680.43805	0.45747
7676.58047	0.45782
7672.72289	0.45867
7668.86531	0.45816
7665.00773	0.45830
7661.15016	0.45934
7657.29258	0.45884
7653.43500	0.45794
7649.57742	0.45777
7645.71984	0.45773
7641.86227	0.45756
7638.00469	0.45657
7634.14711	0.45591
7630.28953	0.45684
7626.43195	0.45745
7622.57437	0.45770
7618.71680	0.45832
7614.85922	0.45746
7611.00164	0.45719
7607.14406	0.45918
7603.28648	0.45936
7599.42891	0.45723
7595.57133	0.45642
7591.71375	0.45754
7587.85617	0.45814
7583.99859	0.45787
7580.14102	0.45828
7576.28344	0.45852
7572.42586	0.45844
7568.56828	0.45856
7564.71070	0.45815
7560.85312	0.45822
7556.99555	0.45882
7553.13797	0.45832
7549.28039	0.45779
7545.42281	0.45861
7541.56523	0.45934
7537.70766	0.45920
7533.85008	0.45838
7529.99250	0.45680
7526.13492	0.45686
7522.27734	0.45825
7518.41977	0.45801
7514.56219	0.45795
7510.70461	0.45862
7506.84703	0.45829
7502.98945	0.45821
7499.13187	0.45872
7495.27430	0.45894
7491.41672	0.45834
7487.55914	0.45751
7483.70156	0.45837
7479.84398	0.45954
7475.98641	0.45862
7472.12883	0.45720
7468.27125	0.45698
7464.41367	0.45756
7460.55609	0.45807
7456.69852	0.45837
7452.84094	0.45915
7448.98336	0.45967
7445.12578	0.45902
7441.26820	0.45816
7437.41062	0.45791
7433.55305	0.45805
7429.69547	0.45807
7425.83789	0.45873
7421.98031	0.45942
7418.12273	0.45862
7414.26516	0.45813
7410.40758	0.45810
7406.55000	0.45796
7402.69242	0.45890
7398.83484	0.45876
7394.97727	0.45697
7391.11969	0.45719
7387.26211	0.45961
7383.40453	0.46023
7379.54695	0.45810
7375.68937	0.45692
7371.83180	0.45748
7367.97422	0.45852
7364.11664	0.45948
7360.25906	0.45907
7356.40148	0.45805
7352.54391	0.45818
7348.68633	0.45801
7344.82875	0.45671
7340.97117	0.45779
7337.11359	0.45979
7333.25602	0.45893
7329.39844	0.45831
7325.54086	0.45942
7321.68328	0.45999
7317.82570	0.45982
7313.96812	0.45808
7310.11055	0.45687
7306.25297	0.45790
7302.39539	0.45836
7298.53781	0.45865
7294.68023	0.45925
7290.82266	0.45941
7286.96508	0.45986
7283.10750	0.46000
7279.24992	0.45977
7275.39234	0.45951
7271.53477	0.45840
7267.67719	0.45797
7263.81961	0.45934
7259.96203	0.45976
7256.10445	0.45922
7252.24687	0.45946
7248.38930	0.45895
7244.53172	0.45874
7240.67414	0.46046
7236.81656	0.46088
7232.95898	0.45952
7229.10141	0.45810
7225.24383	0.45827
7221.38625	0.45999
7217.52867	0.46039
7213.67109	0.45902
7209.81352	0.45870
7205.95594	0.45996
7202.09836	0.46076
7198.24078	0.46053
7194.38320	0.46098
7190.52562	0.46082
7186.66805	0.45909
7182.81047	0.45918
7178.95289	0.46159
7175.09531	0.46232
7171.23773	0.46127
7167.38016	0.46050
7163.52258	0.46064
7159.66500	0.46096
7155.80742	0.46079
7151.94984	0.45989
7148.09227	0.45972
7144.23469	0.46085
7140.37711	0.46171
7136.51953	0.46279
7132.66195	0.46336
7128.80437	0.46244
7124.94680	0.46170
7121.08922	0.46064
7117.23164	0.46019
7113.37406	0.46120
7109.51648	0.46108
7105.65891	0.46132
7101.80133	0.46211
7097.94375	0.46205
7094.08617	0.46297
7090.22859	0.46323
7086.37102	0.46199
7082.51344	0.46170
7078.65586	0.46217
7074.79828	0.46245
7070.94070	0.46266
7067.08312	0.46293
7063.22555	0.46284
7059.36797	0.46207
7055.51039	0.46198
7051.65281	0.46218
7047.79523	0.46154
7043.93766	0.46175
7040.08008	0.46282
7036.22250	0.46321
7032.36492	0.46301
7028.50734	0.46248
7024.64977	0.46197
7020.79219	0.46244
7016.93461	0.46330
7013.07703	0.46321
7009.21945	0.46294
7005.36187	0.46317
7001.50430	0.46311
6997.64672	0.46296
6993.78914	0.46330
6989.93156	0.46334
6986.07398	0.46224
6982.21641	0.46192
6978.35883	0.46304
6974.50125	0.46342
6970.64367	0.46388
6966.78609	0.46486
6962.92852	0.46450
6959.07094	0.46358
6955.21336	0.46329
6951.35578	0.46331
6947.49820	0.46350
6943.64062	0.46349
6939.78305	0.46336
6935.92547	0.46427
6932.06789	0.46520
6928.21031	0.46445
6924.35273	0.46407
6920.49516	0.46488
6916.63758	0.46503
6912.78000	0.46530
6908.92242	0.46580
6905.06484	0.46525
6901.20727	0.46498
6897.34969	0.46517
6893.49211	0.46480
6889.63453	0.46446
6885.77695	0.46407
6881.91937	0.46436
6878.06180	0.46530
6874.20422	0.46536
6870.34664	0.46567
6866.48906	0.46658
6862.63148	0.46686
6858.77391	0.46668
6854.91633	0.46609
6851.05875	0.46547
6847.20117	0.46579
6843.34359	0.46632
6839.48602	0.46629
6835.62844	0.46665
6831.77086	0.46691
6827.91328	0.46645
6824.05570	0.46646
6820.19812	0.46693
6816.34055	0.46707
6812.48297	0.46706
6808.62539	0.46751
6804.76781	0.46791
6800.91023	0.46740
6797.05266	0.46696
6793.19508	0.46724
6789.33750	0.46785
6785.47992	0.46841
6781.62234	0.46850
6777.76477	0.46807
6773.90719	0.46743
6770.04961	0.46720
6766.19203	0.46727
6762.33445	0.46775
6758.47687	0.46878
6754.61930	0.46870
6750.76172	0.46790
6746.90414	0.46824
6743.04656	0.46825
6739.18898	0.46797
6735.33141	0.46943
6731.47383	0.47001
6727.61625	0.46873
6723.75867	0.46873
6719.90109	0.46959
6716.04352	0.47006
6712.18594	0.47001
6708.32836	0.46935
6704.47078	0.46936
6700.61320	0.46979
6696.75562	0.47011
6692.89805	0.47036
6689.04047	0.47020
6685.18289	0.47022
6681.32531	0.47048
6677.46773	0.47025
6673.61016	0.46989
6669.75258	0.47093
6665.89500	0.47218
6662.03742	0.47185
6658.17984	0.47187
6654.32227	0.47150
6650.46469	0.46985
6646.60711	0.46977
6642.74953	0.47103
6638.89195	0.47185
6635.03437	0.47198
6631.17680	0.47189
6627.31922	0.47199
6623.46164	0.47185
6619.60406	0.47217
6615.74648	0.47260
6611.88891	0.47190
6608.03133	0.47176
6604.17375	0.47278
6600.31617	0.47320
6596.45859	0.47266
6592.60102	0.47183
6588.74344	0.47163
6584.88586	0.47221
6581.02828	0.47279
6577.17070	0.47361
6573.31312	0.47449
6569.45555	0.47465
6565.59797	0.47436
6561.74039	0.47391
6557.88281	0.47366
6554.02523	0.47390
6550.16766	0.47401
6546.31008	0.47363
6542.45250	0.47376
6538.59492	0.47447
6534.73734	0.47447
6530.87977	0.47418
6527.02219	0.47426
6523.16461	0.47446
6519.30703	0.47455
6515.44945	0.47439
6511.59187	0.47483
6507.73430	0.47558
6503.87672	0.47528
6500.01914	0.47477
6496.16156	0.47546
6492.30398	0.47625
6488.44641	0.47594
6484.58883	0.47606
6480.73125	0.47631
6476.87367	0.47540
6473.01609	0.47530
6469.15852	0.47615
6465.30094	0.47636
6461.44336	0.47608
6457.58578	0.47561
6453.72820	0.47578
6449.87062	0.47660
6446.01305	0.47709
6442.15547	0.47726
6438.29789	0.47699
6434.44031	0.47703
6430.58273	0.47807
6426.72516	0.47892
6422.86758	0.47862
6419.01000	0.47794
6415.15242	0.47828
6411.29484	0.47875
6407.43727	0.47820
6403.57969	0.47844
6399.72211	0.47925
6395.86453	0.47902
6392.00695	0.47856
6388.14937	0.47857
6384.29180	0.47886
6380.43422	0.47874
6376.57664	0.47870
6372.71906	0.47973
6368.86148	0.48059
6365.00391	0.48044
6361.14633	0.48040
6357.28875	0.48088
6353.43117	0.48058
6349.57359	0.47951
6345.71602	0.47962
6341.85844	0.48062
6338.00086	0.48084
6334.14328	0.48053
6330.28570	0.48055
6326.42812	0.48065
6322.57055	0.48056
6318.71297	0.48063
6314.85539	0.48062
6310.99781	0.48060
6307.14023	0.48095
6303.28266	0.48093
6299.42508	0.48070
6295.56750	0.48078
6291.70992	0.48077
6287.85234	0.48100
6283.99477	0.48143
6280.13719	0.48160
6276.27961	0.48176
6272.42203	0.48210
6268.56445	0.48243
6264.70687	0.48228
6260.84930	0.48204
6256.99172	0.48237
6253.13414	0.48278
6249.27656	0.48307
6245.41898	0.48325
6241.56141	0.48322
6237.70383	0.48382
6233.84625	0.48463
6229.98867	0.48419
6226.13109	0.48326
6222.27352	0.48343
6218.41594	0.48429
6214.55836	0.48458
6210.70078	0.48446
6206.84320	0.48473
6202.98562	0.48513
6199.12805	0.48551
6195.27047	0.48570
6191.41289	0.48509
6187.55531	0.48479
6183.69773	0.48553
6179.84016	0.48577
6175.98258	0.48520
6172.12500	0.48523
6168.26742	0.48576
6164.40984	0.48567
6160.55227	0.48539
6156.69469	0.48525
6152.83711	0.48534
6148.97953	0.48616
6145.12195	0.48654
6141.26437	0.48595
6137.40680	0.48579
6133.54922	0.48600
6129.69164	0.48620
6125.83406	0.48662
6121.97648	0.48673
6118.11891	0.48653
6114.26133	0.48671
6110.40375	0.48727
6106.54617	0.48770
6102.68859	0.48769
6098.83102	0.48734
6094.97344	0.48716
6091.11586	0.48720
6087.25828	0.48721
6083.40070	0.48733
6079.54312	0.48753
6075.68555	0.48800
6071.82797	0.48877
6067.97039	0.48912
6064.11281	0.48887
6060.25523	0.48869
6056.39766	0.48858
6052.54008	0.48839
6048.68250	0.48911
6044.82492	0.49004
6040.96734	0.48956
6037.10977	0.48903
6033.25219	0.48957
6029.39461	0.49000
6025.53703	0.49001
6021.67945	0.49016
6017.82187	0.49056
6013.96430	0.49067
6010.10672	0.49015
6006.24914	0.48973
6002.39156	0.49028
5998.53398	0.49112
5994.67641	0.49112
5990.81883	0.49096
5986.96125	0.49116
5983.10367	0.49142
5979.24609	0.49172
5975.38852	0.49190
5971.53094	0.49201
5967.67336	0.49190
5963.81578	0.49181
5959.95820	0.49216
5956.10062	0.49207
5952.24305	0.49164
5948.38547	0.49183
5944.52789	0.49212
5940.67031	0.49199
5936.81273	0.49198
5932.95516	0.49243
5929.09758	0.49275
5925.24000	0.49244
5921.38242	0.49246
5917.52484	0.49319
5913.66727	0.49319
5909.80969	0.49261
5905.95211	0.49282
5902.09453	0.49317
5898.23695	0.49310
5894.37937	0.49298
5890.52180	0.49292
5886.66422	0.49311
5882.80664	0.49325
5878.94906	0.49337
5875.09148	0.49337
5871.23391	0.49297
5867.37633	0.49351
5863.51875	0.49431
5859.66117	0.49370
5855.80359	0.49332
5851.94602	0.49356
5848.08844	0.49317
5844.23086	0.49329
5840.37328	0.49392
5836.51570	0.49389
5832.65812	0.49406
5828.80055	0.49458
5824.94297	0.49494
5821.08539	0.49496
5817.22781	0.49434
5813.37023	0.49389
5809.51266	0.49382
5805.65508	0.49388
5801.79750	0.49452
5797.93992	0.49491
5794.08234	0.49484
5790.22477	0.49516
5786.36719	0.49521
5782.50961	0.49481
5778.65203	0.49480
5774.79445	0.49476
5770.93687	0.49440
5767.07930	0.49442
5763.22172	0.49484
5759.36414	0.49501
5755.50656	0.49491
5751.64898	0.49510
5747.79141	0.49514
5743.93383	0.49479
5740.07625	0.49477
5736.21867	0.49477
5732.36109	0.49488
5728.50352	0.49559
5724.64594	0.49617
5720.78836	0.49642
5716.93078	0.49618
5713.07320	0.49563
5709.21562	0.49608
5705.35805	0.49668
5701.50047	0.49625
5697.64289	0.49605
5693.78531	0.49594
5689.92773	0.49531
5686.07016	0.49562
5682.21258	0.49620
5678.35500	0.49573
5674.49742	0.49594
5670.63984	0.49720
5666.78227	0.49745
5662.92469	0.49637
5659.06711	0.49542
5655.20953	0.49576
5651.35195	0.49627
5647.49437	0.49580
5643.63680	0.49576
5639.77922	0.49653
5635.92164	0.49710
5632.06406	0.49755
5628.20648	0.49775
5624.34891	0.49745
5620.49133	0.49695
5616.63375	0.49665
5612.77617	0.49660
5608.91859	0.49689
5605.06102	0.49731
5601.20344	0.49766
5597.34586	0.49824
5593.48828	0.49834
5589.63070	0.49787
5585.77312	0.49752
5581.91555	0.49732
5578.05797	0.49761
5574.20039	0.49796
5570.34281	0.49791
5566.48523	0.49783
5562.62766	0.49762
5558.77008	0.49739
5554.91250	0.49726
5551.05492	0.49741
5547.19734	0.49803
5543.33977	0.49859
5539.48219	0.49858
5535.62461	0.49808
5531.76703	0.49753
5527.90945	0.49743
5524.05187	0.49748
5520.19430	0.49711
5516.33672	0.49696
5512.47914	0.49732
5508.62156	0.49696
5504.76398	0.49628
5500.90641	0.49737
5497.04883	0.49925
5493.19125	0.49911
5489.33367	0.49708
5485.47609	0.49635
5481.61852	0.49745
5477.76094	0.49775
5473.90336	0.49695
5470.04578	0.49705
5466.18820	0.49720
5462.33062	0.49695
5458.47305	0.49702
5454.61547	0.49744
5450.75789	0.49770
5446.90031	0.49749
5443.04273	0.49739
5439.18516	0.49735
5435.32758	0.49711
5431.47000	0.49656
5427.61242	0.49579
5423.75484	0.49586
5419.89727	0.49740
5416.03969	0.49914
5412.18211	0.49806
5408.32453	0.49610
5404.46695	0.49619
5400.60937	0.49697
5396.75180	0.49698
5392.89422	0.49612
5389.03664	0.49610
5385.17906	0.49641
5381.32148	0.49656
5377.46391	0.49682
5373.60633	0.49637
5369.74875	0.49650
5365.89117	0.49625
5362.03359	0.49536
5358.17602	0.49617
5354.31844	0.49688
5350.46086	0.49622
5346.60328	0.49563
5342.74570	0.49555
5338.88812	0.49572
5335.03055	0.49614
5331.17297	0.49683
5327.31539	0.49608
5323.45781	0.49512
5319.60023	0.49526
5315.74266	0.49556
5311.88508	0.49647
5308.02750	0.49669
5304.16992	0.49608
5300.31234	0.49607
5296.45477	0.49612
5292.59719	0.49608
5288.73961	0.49559
5284.88203	0.49537
5281.02445	0.49596
5277.16687	0.49620
5273.30930	0.49604
5269.45172	0.49629
5265.59414	0.49612
5261.73656	0.49467
5257.87898	0.49427
5254.02141	0.49544
5250.16383	0.49601
5246.30625	0.49488
5242.44867	0.49429
5238.59109	0.49524
5234.73352	0.49550
5230.87594	0.49521
5227.01836	0.49500
5223.16078	0.49486
5219.30320	0.49524
5215.44562	0.49498
5211.58805	0.49502
5207.73047	0.49430
5203.87289	0.49295
5200.01531	0.49421
5196.15773	0.49488
5192.30016	0.49437
5188.44258	0.49487
5184.58500	0.49437
5180.72742	0.49371
5176.86984	0.49373
5173.01227	0.49358
5169.15469	0.49397
5165.29711	0.49435
5161.43953	0.49413
5157.58195	0.49386
5153.72437	0.49379
5149.86680	0.49392
5146.00922	0.49379
5142.15164	0.49328
5138.29406	0.49309
5134.43648	0.49319
5130.57891	0.49322
5126.72133	0.49339
5122.86375	0.49352
5119.00617	0.49341
5115.14859	0.49323
5111.29102	0.49277
5107.43344	0.49224
5103.57586	0.49231
5099.71828	0.49269
5095.86070	0.49264
5092.00312	0.49228
5088.14555	0.49233
5084.28797	0.49235
5080.43039	0.49179
5076.57281	0.49161
5072.71523	0.49184
5068.85766	0.49177
5065.00008	0.49179
5061.14250	0.49172
5057.28492	0.49139
5053.42734	0.49117
5049.56977	0.49108
5045.71219	0.49121
5041.85461	0.49097
5037.99703	0.49047
5034.13945	0.49046
5030.28187	0.49057
5026.42430	0.49066
5022.56672	0.49062
5018.70914	0.49035
5014.85156	0.49045
5010.99398	0.49042
5007.13641	0.48983
5003.27883	0.48940
4999.42125	0.48944
4995.56367	0.48959
4991.70609	0.48935
4987.84852	0.48899
4983.99094	0.48911
4980.13336	0.48905
4976.27578	0.48872
4972.41820	0.48896
4968.56062	0.48943
4964.70305	0.48947
4960.84547	0.48902
4956.98789	0.48860
4953.13031	0.48865
4949.27273	0.48862
4945.41516	0.48839
4941.55758	0.48822
4937.70000	0.48815
4933.84242	0.48803
4929.98484	0.48772
4926.12727	0.48755
4922.26969	0.48740
4918.41211	0.48721
4914.55453	0.48721
4910.69695	0.48704
4906.83937	0.48705
4902.98180	0.48721
4899.12422	0.48689
4895.26664	0.48649
4891.40906	0.48634
4887.55148	0.48612
4883.69391	0.48595
4879.83633	0.48584
4875.97875	0.48533
4872.12117	0.48505
4868.26359	0.48531
4864.40602	0.48530
4860.54844	0.48519
4856.69086	0.48516
4852.83328	0.48518
4848.97570	0.48538
4845.11812	0.48511
4841.26055	0.48471
4837.40297	0.48489
4833.54539	0.48486
4829.68781	0.48425
4825.83023	0.48389
4821.97266	0.48421
4818.11508	0.48449
4814.25750	0.48403
4810.39992	0.48342
4806.54234	0.48341
4802.68477	0.48366
4798.82719	0.48355
4794.96961	0.48318
4791.11203	0.48320
4787.25445	0.48340
4783.39687	0.48309
4779.53930	0.48279
4775.68172	0.48268
4771.82414	0.48228
4767.96656	0.48196
4764.10898	0.48199
4760.25141	0.48224
4756.39383	0.48245
4752.53625	0.48236
4748.67867	0.48225
4744.82109	0.48228
4740.96352	0.48200
4737.10594	0.48132
4733.24836	0.48093
4729.39078	0.48107
4725.53320	0.48142
4721.67562	0.48171
4717.81805	0.48161
4713.96047	0.48145
4710.10289	0.48135
4706.24531	0.48083
4702.38773	0.48030
4698.53016	0.48027
4694.67258	0.48030
4690.81500	0.48016
4686.95742	0.48003
4683.09984	0.47975
4679.24227	0.47942
4675.38469	0.47949
4671.52711	0.47957
4667.66953	0.47942
4663.81195	0.47921
4659.95437	0.47895
4656.09680	0.47907
4652.23922	0.47915
4648.38164	0.47856
4644.52406	0.47831
4640.66648	0.47864
4636.80891	0.47860
4632.95133	0.47815
4629.09375	0.47779
4625.23617	0.47776
4621.37859	0.47766
4617.52102	0.47719
4613.66344	0.47687
4609.80586	0.47675
4605.94828	0.47658
4602.09070	0.47650
4598.23312	0.47644
4594.37555	0.47618
4590.51797	0.47571
4586.66039	0.47564
4582.80281	0.47624
4578.94523	0.47649
4575.08766	0.47599
4571.23008	0.47540
4567.37250	0.47524
4563.51492	0.47525
4559.65734	0.47509
4555.79977	0.47512
4551.94219	0.47500
4548.08461	0.47460
4544.22703	0.47471
4540.36945	0.47478
4536.51187	0.47457
4532.65430	0.47456
4528.79672	0.47425
4524.93914	0.47381
4521.08156	0.47374
4517.22398	0.47375
4513.36641	0.47353
4509.50883	0.47317
4505.65125	0.47315
4501.79367	0.47312
4497.93609	0.47272
4494.07852	0.47263
4490.22094	0.47262
4486.36336	0.47227
4482.50578	0.47233
4478.64820	0.47259
4474.79062	0.47247
4470.93305	0.47209
4467.07547	0.47151
4463.21789	0.47134
4459.36031	0.47192
4455.50273	0.47219
4451.64516	0.47167
4447.78758	0.47113
4443.93000	0.47097
4440.07242	0.47080
4436.21484	0.47059
4432.35727	0.47063
4428.49969	0.47067
4424.64211	0.47065
4420.78453	0.47057
4416.92695	0.47025
4413.06937	0.47014
4409.21180	0.47019
4405.35422	0.46991
4401.49664	0.46966
4397.63906	0.46971
4393.78148	0.46988
4389.92391	0.46979
4386.06633	0.46925
4382.20875	0.46903
4378.35117	0.46916
4374.49359	0.46892
4370.63602	0.46885
4366.77844	0.46890
4362.92086	0.46853
4359.06328	0.46844
4355.20570	0.46850
4351.34812	0.46831
4347.49055	0.46818
4343.63297	0.46791
4339.77539	0.46772
4335.91781	0.46791
4332.06023	0.46777
4328.20266	0.46722
4324.34508	0.46707
4320.48750	0.46726
4316.62992	0.46750
4312.77234	0.46746
4308.91477	0.46703
4305.05719	0.46689
4301.19961	0.46680
4297.34203	0.46667
4293.48445	0.46679
4289.62687	0.46645
4285.76930	0.46592
4281.91172	0.46585
4278.05414	0.46599
4274.19656	0.46607
4270.33898	0.46591
4266.48141	0.46568
4262.62383	0.46535
4258.76625	0.46512
4254.90867	0.46545
4251.05109	0.46554
4247.19352	0.46504
4243.33594	0.46482
4239.47836	0.46484
4235.62078	0.46454
4231.76320	0.46434
4227.90562	0.46459
4224.04805	0.46453
4220.19047	0.46411
4216.33289	0.46407
4212.47531	0.46411
4208.61773	0.46395
4204.76016	0.46377
4200.90258	0.46343
4197.04500	0.46336
4193.18742	0.46355
4189.32984	0.46335
4185.47227	0.46284
4181.61469	0.46253
4177.75711	0.46256
4173.89953	0.46256
4170.04195	0.46229
4166.18437	0.46226
4162.32680	0.46247
4158.46922	0.46237
4154.61164	0.46225
4150.75406	0.46211
4146.89648	0.46174
4143.03891	0.46153
4139.18133	0.46149
4135.32375	0.46146
4131.46617	0.46127
4127.60859	0.46102
4123.75102	0.46103
4119.89344	0.46108
4116.03586	0.46115
4112.17828	0.46112
4108.32070	0.46082
4104.46312	0.46070
4100.60555	0.46065
4096.74797	0.46038
4092.89039	0.46010
4089.03281	0.46000
4085.17523	0.46005
4081.31766	0.46011
4077.46008	0.46016
4073.60250	0.45987
4069.74492	0.45951
4065.88734	0.45941
4062.02977	0.45937
4058.17219	0.45945
4054.31461	0.45922
4050.45703	0.45901
4046.59945	0.45944
4042.74187	0.45933
4038.88430	0.45883
4035.02672	0.45884
4031.16914	0.45875
4027.31156	0.45859
4023.45398	0.45856
4019.59641	0.45833
4015.73883	0.45804
4011.88125	0.45809
4008.02367	0.45827
4004.16609	0.45818
4000.30852	0.45793
3996.45094	0.45769
3992.59336	0.45759
3988.73578	0.45752
3984.87820	0.45730
3981.02062	0.45698
3977.16305	0.45689
3973.30547	0.45726
3969.44789	0.45726
3965.59031	0.45705
3961.73273	0.45703
3957.87516	0.45661
3954.01758	0.45649
3950.16000	0.45688
3946.30242	0.45685
3942.44484	0.45655
3938.58727	0.45617
3934.72969	0.45567
3930.87211	0.45546
3927.01453	0.45546
3923.15695	0.45565
3919.29937	0.45659
3915.44180	0.45675
3911.58422	0.45543
3907.72664	0.45460
3903.86906	0.45458
3900.01148	0.45373
3896.15391	0.45354
3892.29633	0.45401
3888.43875	0.45389
3884.58117	0.45459
3880.72359	0.45508
3876.86602	0.45392
3873.00844	0.45357
3869.15086	0.45460
3865.29328	0.45546
3861.43570	0.45446
3857.57812	0.45311
3853.72055	0.45348
3849.86297	0.45268
3846.00539	0.45174
3842.14781	0.45202
3838.29023	0.45263
3834.43266	0.45329
3830.57508	0.45308
3826.71750	0.45208
3822.85992	0.45245
3819.00234	0.45354
3815.14477	0.45250
3811.28719	0.45203
3807.42961	0.45289
3803.57203	0.45397
3799.71445	0.45374
3795.85687	0.45280
3791.99930	0.45251
3788.14172	0.45258
3784.28414	0.45266
3780.42656	0.45295
3776.56898	0.45264
3772.71141	0.45247
3768.85383	0.45277
3764.99625	0.45203
3761.13867	0.45151
3757.28109	0.45148
3753.42352	0.45067
3749.56594	0.45053
3745.70836	0.45034
3741.85078	0.44861
3737.99320	0.44921
3734.13562	0.45204
3730.27805	0.45019
3726.42047	0.44830
3722.56289	0.44871
3718.70531	0.44899
3714.84773	0.45000
3710.99016	0.45192
3707.13258	0.45095
3703.27500	0.45030
3699.41742	0.44975
3695.55984	0.44832
3691.70227	0.44877
3687.84469	0.45012
3683.98711	0.44912
3680.12953	0.44873
3676.27195	0.44913
3672.41437	0.45010
3668.55680	0.45043
3664.69922	0.44927
3660.84164	0.44868
3656.98406	0.44877
3653.12648	0.44913
3649.26891	0.45003
3645.41133	0.44934
3641.55375	0.44858
3637.69617	0.44760
3633.83859	0.44693
3629.98102	0.44850
3626.12344	0.44834
3622.26586	0.44708
3618.40828	0.44790
3614.55070	0.44909
3610.69312	0.44940
3606.83555	0.44842
3602.97797	0.44724
3599.12039	0.44771
3595.26281	0.44786
3591.40523	0.44666
3587.54766	0.44630
3583.69008	0.44708
3579.83250	0.44753
3575.97492	0.44754
3572.11734	0.44749
3568.25977	0.44774
3564.40219	0.44752
3560.54461	0.44707
3556.68703	0.44708
3552.82945	0.44681
3548.97187	0.44629
3545.11430	0.44663
3541.25672	0.44676
3537.39914	0.44627
3533.54156	0.44632
3529.68398	0.44659
3525.82641	0.44659
3521.96883	0.44672
3518.11125	0.44663
3514.25367	0.44630
3510.39609	0.44623
3506.53852	0.44612
3502.68094	0.44604
3498.82336	0.44625
3494.96578	0.44631
3491.10820	0.44630
3487.25062	0.44641
3483.39305	0.44624
3479.53547	0.44595
3475.67789	0.44580
3471.82031	0.44559
3467.96273	0.44563
3464.10516	0.44588
3460.24758	0.44565
3456.39000	0.44540
3452.53242	0.44537
3448.67484	0.44514
3444.81727	0.44519
3440.95969	0.44542
3437.10211	0.44537
3433.24453	0.44537
3429.38695	0.44521
3425.52937	0.44473
3421.67180	0.44458
3417.81422	0.44481
3413.95664	0.44472
3410.09906	0.44463
3406.24148	0.44483
3402.38391	0.44450
3398.52633	0.44407
3394.66875	0.44417
3390.81117	0.44422
3386.95359	0.44420
3383.09602	0.44414
3379.23844	0.44399
3375.38086	0.44399
3371.52328	0.44390
3367.66570	0.44379
3363.80812	0.44391
3359.95055	0.44393
3356.09297	0.44366
3352.23539	0.44355
3348.37781	0.44372
3344.52023	0.44363
3340.66266	0.44351
3336.80508	0.44354
3332.94750	0.44321
3329.08992	0.44307
3325.23234	0.44322
3321.37477	0.44306
3317.51719	0.44308
3313.65961	0.44310
3309.80203	0.44257
3305.94445	0.44225
3302.08687	0.44242
3298.22930	0.44250
3294.37172	0.44231
3290.51414	0.44211
3286.65656	0.44191
3282.79898	0.44182
3278.94141	0.44209
3275.08383	0.44223
3271.22625	0.44212
3267.36867	0.44222
3263.51109	0.44211
3259.65352	0.44183
3255.79594	0.44178
3251.93836	0.44161
3248.08078	0.44133
3244.22320	0.44144
3240.36562	0.44168
3236.50805	0.44141
3232.65047	0.44116
3228.79289	0.44135
3224.93531	0.44139
3221.07773	0.44130
3217.22016	0.44124
3213.36258	0.44115
3209.50500	0.44100
3205.64742	0.44071
3201.78984	0.44061
3197.93227	0.44076
3194.07469	0.44069
3190.21711	0.44054
3186.35953	0.44058
3182.50195	0.44056
3178.64437	0.44051
3174.78680	0.44065
3170.92922	0.44055
3167.07164	0.44038
3163.21406	0.44053
3159.35648	0.44047
3155.49891	0.44035
3151.64133	0.44050
3147.78375	0.44054
3143.92617	0.44033
3140.06859	0.43998
3136.21102	0.43976
3132.35344	0.43987
3128.49586	0.43996
3124.63828	0.43977
3120.78070	0.43961
3116.92312	0.43977
3113.06555	0.43978
3109.20797	0.43935
3105.35039	0.43916
3101.49281	0.43936
3097.63523	0.43935
3093.77766	0.43923
3089.92008	0.43919
3086.06250	0.43905
3082.20492	0.43901
3078.34734	0.43910
3074.48977	0.43919
3070.63219	0.43940
3066.77461	0.43954
3062.91703	0.43945
3059.05945	0.43928
3055.20187	0.43914
3051.34430	0.43898
3047.48672	0.43872
3043.62914	0.43856
3039.77156	0.43870
3035.91398	0.43888
3032.05641	0.43885
3028.19883	0.43865
3024.34125	0.43849
3020.48367	0.43837
3016.62609	0.43807
3012.76852	0.43787
3008.91094	0.43798
3005.05336	0.43807
3001.19578	0.43797
2997.33820	0.43785
2993.48062	0.43786
2989.62305	0.43794
2985.76547	0.43774
2981.90789	0.43731
2978.05031	0.43721
2974.19273	0.43729
2970.33516	0.43706
2966.47758	0.43671
2962.62000	0.43650
2958.76242	0.43644
2954.90484	0.43647
2951.04727	0.43645
2947.18969	0.43642
2943.33211	0.43634
2939.47453	0.43605
2935.61695	0.43574
2931.75937	0.43560
2927.90180	0.43540
2924.04422	0.43494
2920.18664	0.43448
2916.32906	0.43462
2912.47148	0.43522
2908.61391	0.43560
2904.75633	0.43566
2900.89875	0.43558
2897.04117	0.43560
2893.18359	0.43571
2889.32602	0.43562
2885.46844	0.43567
2881.61086	0.43585
2877.75328	0.43570
2873.89570	0.43539
2870.03812	0.43548
2866.18055	0.43583
2862.32297	0.43574
2858.46539	0.43530
2854.60781	0.43492
2850.75023	0.43465
2846.89266	0.43468
2843.03508	0.43515
2839.17750	0.43570
2835.31992	0.43564
2831.46234	0.43533
2827.60477	0.43553
2823.74719	0.43566
2819.88961	0.43539
2816.03203	0.43533
2812.17445	0.43555
2808.31687	0.43565
2804.45930	0.43547
2800.60172	0.43535
2796.74414	0.43546
2792.88656	0.43555
2789.02898	0.43546
2785.17141	0.43530
2781.31383	0.43532
2777.45625	0.43536
2773.59867	0.43539
2769.74109	0.43552
2765.88352	0.43556
2762.02594	0.43543
2758.16836	0.43516
2754.31078	0.43505
2750.45320	0.43500
2746.59562	0.43483
2742.73805	0.43489
2738.88047	0.43499
2735.02289	0.43489
2731.16531	0.43483
2727.30773	0.43474
2723.45016	0.43478
2719.59258	0.43478
2715.73500	0.43459
2711.87742	0.43460
2708.01984	0.43465
2704.16227	0.43467
2700.30469	0.43475
2696.44711	0.43472
2692.58953	0.43468
2688.73195	0.43454
2684.87437	0.43440
2681.01680	0.43448
2677.15922	0.43444
2673.30164	0.43429
2669.44406	0.43446
2665.58648	0.43473
2661.72891	0.43454
2657.87133	0.43403
2654.01375	0.43369
2650.15617	0.43378
2646.29859	0.43391
2642.44102	0.43367
2638.58344	0.43362
2634.72586	0.43382
2630.86828	0.43367
2627.01070	0.43346
2623.15312	0.43362
2619.29555	0.43387
2615.43797	0.43360
2611.58039	0.43324
2607.72281	0.43337
2603.86523	0.43338
2600.00766	0.43339
2596.15008	0.43354
2592.29250	0.43334
2588.43492	0.43301
2584.57734	0.43285
2580.71977	0.43291
2576.86219	0.43297
2573.00461	0.43303
2569.14703	0.43335
2565.28945	0.43312
2561.43187	0.43244
2557.57430	0.43236
2553.71672	0.43247
2549.85914	0.43255
2546.00156	0.43279
2542.14398	0.43243
2538.28641	0.43188
2534.42883	0.43194
2530.57125	0.43201
2526.71367	0.43189
2522.85609	0.43188
2518.99852	0.43191
2515.14094	0.43193
2511.28336	0.43165
2507.42578	0.43146
2503.56820	0.43176
2499.71062	0.43194
2495.85305	0.43201
2491.99547	0.43235
2488.13789	0.43232
2484.28031	0.43171
2480.42273	0.43144
2476.56516	0.43171
2472.70758	0.43177
2468.85000	0.43170
2464.99242	0.43176
2461.13484	0.43165
2457.27727	0.43160
2453.41969	0.43170
2449.56211	0.43145
2445.70453	0.43137
2441.84695	0.43203
2437.98937	0.43253
2434.13180	0.43204
2430.27422	0.43106
2426.41664	0.43101
2422.55906	0.43193
2418.70148	0.43238
2414.84391	0.43219
2410.98633	0.43206
2407.12875	0.43220
2403.27117	0.43200
2399.41359	0.43135
2395.55602	0.43138
2391.69844	0.43138
2387.84086	0.43044
2383.98328	0.42975
2380.12570	0.42945
2376.26812	0.42794
2372.41055	0.42520
2368.55297	0.42650
2364.69539	0.43120
2360.83781	0.43310
2356.98023	0.43772
2353.12266	0.43295
2349.26508	0.42626
2345.40750	0.42306
2341.54992	0.42098
2337.69234	0.42474
2333.83477	0.43328
2329.97719	0.43371
2326.11961	0.43081
2322.26203	0.42887
2318.40445	0.42729
2314.54687	0.42702
2310.68930	0.42754
2306.83172	0.42905
2302.97414	0.42924
2299.11656	0.42960
2295.25898	0.43109
2291.40141	0.43085
2287.54383	0.43078
2283.68625	0.43160
2279.82867	0.43145
2275.97109	0.43134
2272.11352	0.43227
2268.25594	0.43365
2264.39836	0.43359
2260.54078	0.43201
2256.68320	0.43118
2252.82562	0.43138
2248.96805	0.43185
2245.11047	0.43212
2241.25289	0.43191
2237.39531	0.43106
2233.53773	0.43068
2229.68016	0.43153
2225.82258	0.43201
2221.96500	0.43180
2218.10742	0.43140
2214.24984	0.43057
2210.39227	0.42994
2206.53469	0.42998
2202.67711	0.43004
2198.81953	0.43032
2194.96195	0.43167
2191.10437	0.43204
2187.24680	0.43036
2183.38922	0.42961
2179.53164	0.43035
2175.67406	0.43051
2171.81648	0.42989
2167.95891	0.42952
2164.10133	0.42981
2160.24375	0.43095
2156.38617	0.43189
2152.52859	0.43094
2148.67102	0.43015
2144.81344	0.43079
2140.95586	0.43056
2137.09828	0.43032
2133.24070	0.43066
2129.38312	0.43039
2125.52555	0.43111
2121.66797	0.43301
2117.81039	0.43440
2113.95281	0.43480
2110.09523	0.43429
2106.23766	0.43337
2102.38008	0.43448
2098.52250	0.43767
2094.66492	0.43728
2090.80734	0.43591
2086.94977	0.43912
2083.09219	0.44223
2079.23461	0.44314
2075.37703	0.44138
2071.51945	0.43944
2067.66187	0.44225
2063.80430	0.44506
2059.94672	0.44477
2056.08914	0.44355
2052.23156	0.44411
2048.37398	0.44718
2044.51641	0.44703
2040.65883	0.44332
2036.80125	0.44277
2032.94367	0.44531
2029.08609	0.44495
2025.22852	0.44244
2021.37094	0.44334
2017.51336	0.44590
2013.65578	0.44587
2009.79820	0.44323
2005.94062	0.44010
2002.08305	0.43856
1998.22547	0.43893
1994.36789	0.44103
1990.51031	0.44292
1986.65273	0.44301
1982.79516	0.44168
1978.93758	0.44185
1975.08000	0.44554
1971.22242	0.44629
1967.36484	0.44276
1963.50727	0.44104
1959.64969	0.44142
1955.79211	0.44261
1951.93453	0.44305
1948.07695	0.44110
1944.21937	0.43747
1940.36180	0.43615
1936.50422	0.43920
1932.64664	0.44315
1928.78906	0.44474
1924.93148	0.44344
1921.07391	0.44402
1917.21633	0.44656
1913.35875	0.44454
1909.50117	0.44076
1905.64359	0.44039
1901.78602	0.44185
1897.92844	0.44196
1894.07086	0.44269
1890.21328	0.44396
1886.35570	0.44208
1882.49812	0.44033
1878.64055	0.44024
1874.78297	0.44131
1870.92539	0.44208
1867.06781	0.44022
1863.21023	0.44006
1859.35266	0.44047
1855.49508	0.43934
1851.63750	0.43963
1847.77992	0.44176
1843.92234	0.44267
1840.06477	0.44247
1836.20719	0.44271
1832.34961	0.44092
1828.49203	0.44106
1824.63445	0.44389
1820.77687	0.44210
1816.91930	0.43905
1813.06172	0.43921
1809.20414	0.44330
1805.34656	0.44700
1801.48898	0.44593
1797.63141	0.44124
1793.77383	0.43797
1789.91625	0.43834
1786.05867	0.43827
1782.20109	0.43850
1778.34352	0.43912
1774.48594	0.43580
1770.62836	0.43567
1766.77078	0.43814
1762.91320	0.43518
1759.05562	0.43542
1755.19805	0.43916
1751.34047	0.43756
1747.48289	0.43492
1743.62531	0.43678
1739.76773	0.43725
1735.91016	0.43579
1732.05258	0.43827
1728.19500	0.43970
1724.33742	0.43854
1720.47984	0.44121
1716.62227	0.44235
1712.76469	0.43753
1708.90711	0.43853
1705.04953	0.43833
1701.19195	0.43221
1697.33437	0.43149
1693.47680	0.43599
1689.61922	0.43721
1685.76164	0.43627
1681.90406	0.43828
1678.04648	0.43889
1674.18891	0.43487
1670.33133	0.43120
1666.47375	0.43296
1662.61617	0.43597
1658.75859	0.43533
1654.90102	0.43265
1651.04344	0.43268
1647.18586	0.43452
1643.32828	0.43730
1639.47070	0.43727
1635.61312	0.43422
1631.75555	0.43558
1627.89797	0.43599
1624.04039	0.43451
1620.18281	0.43658
1616.32523	0.43750
1612.46766	0.43519
1608.61008	0.43510
1604.75250	0.43627
1600.89492	0.43647
1597.03734	0.43775
1593.17977	0.43868
1589.32219	0.43786
1585.46461	0.43873
1581.60703	0.43955
1577.74945	0.43619
1573.89187	0.43298
1570.03430	0.43383
1566.17672	0.43457
1562.31914	0.43691
1558.46156	0.44102
1554.60398	0.43841
1550.74641	0.43562
1546.88883	0.43197
1543.03125	0.42529
1539.17367	0.42494
1535.31609	0.43124
1531.45852	0.43347
1527.60094	0.42995
1523.74336	0.42692
1519.88578	0.42727
1516.02820	0.42944
1512.17062	0.43239
1508.31305	0.43122
1504.45547	0.42943
1500.59789	0.43045
1496.74031	0.43303
1492.88273	0.43782
1489.02516	0.43923
1485.16758	0.43646
1481.31000	0.43361
1477.45242	0.43141
1473.59484	0.43010
1469.73727	0.42939
1465.87969	0.43050
1462.02211	0.43219
1458.16453	0.42812
1454.30695	0.42144
1450.44937	0.42222
1446.59180	0.42491
1442.73422	0.42726
1438.87664	0.42984
1435.01906	0.43024
1431.16148	0.42948
1427.30391	0.42957
1423.44633	0.42987
1419.58875	0.43063
1415.73117	0.42983
1411.87359	0.42987
1408.01602	0.43177
1404.15844	0.43071
1400.30086	0.42614
1396.44328	0.42653
1392.58570	0.43078
1388.72812	0.42950
1384.87055	0.42778
1381.01297	0.43057
1377.15539	0.43390
1373.29781	0.43265
1369.44023	0.42872
1365.58266	0.42848
1361.72508	0.42995
1357.86750	0.42910
1354.00992	0.42830
1350.15234	0.43001
1346.29477	0.43272
1342.43719	0.43161
1338.57961	0.42688
1334.72203	0.42706
1330.86445	0.42990
1327.00687	0.42926
1323.14930	0.42732
1319.29172	0.42747
1315.43414	0.42919
1311.57656	0.42968
1307.71898	0.42746
1303.86141	0.42502
1300.00383	0.42476
1296.14625	0.42710
1292.28867	0.42830
1288.43109	0.42628
1284.57352	0.42588
1280.71594	0.42634
1276.85836	0.42476
1273.00078	0.42479
1269.14320	0.42632
1265.28562	0.42730
1261.42805	0.42808
1257.57047	0.42680
1253.71289	0.42659
1249.85531	0.42934
1245.99773	0.43119
1242.14016	0.43151
1238.28258	0.42744
1234.42500	0.42471
1230.56742	0.42795
1226.70984	0.42855
1222.85227	0.42954
1218.99469	0.43169
1215.13711	0.43185
1211.27953	0.43038
1207.42195	0.42336
1203.56437	0.42122
1199.70680	0.42599
1195.84922	0.42791
1191.99164	0.42827
1188.13406	0.42472
1184.27648	0.42075
1180.41891	0.42596
1176.56133	0.43300
1172.70375	0.42706
1168.84617	0.42124
1164.98859	0.42901
1161.13102	0.42833
1157.27344	0.42559
1153.41586	0.43307
1149.55828	0.43055
1145.70070	0.43181
1141.84312	0.44348
1137.98555	0.43874
1134.12797	0.41003
1130.27039	0.38289
1126.41281	0.38825
1122.55523	0.39800
1118.69766	0.40113
1114.84008	0.45035
1110.98250	0.45516
1107.12492	0.32073
1103.26734	0.22330
1099.40977	0.28766
1095.55219	0.41003
1091.69461	0.42379
1087.83703	0.39993
1083.97945	0.41509
1080.12187	0.38940
1076.26430	0.35215
1072.40672	0.39425
1068.54914	0.43521
1064.69156	0.31842
1060.83398	0.23844
1056.97641	0.29437
1053.11883	0.45923
1049.26125	0.50600
1045.40367	0.29681
1041.54609	0.33558
1037.68852	0.49274
1033.83094	0.42136
1029.97336	0.19757
1026.11578	0.06250
1022.25820	-0.44720
1018.40062	-0.77395
1014.54305	-0.11877
1010.68547	-0.17310
1006.82789	-0.05169
1002.97031	0.76148
999.11273	0.31950
995.25516	-0.23933
991.39758	-0.02994
987.54000	0.16548
983.68242	0.93265
979.82484	0.93265
975.96727	0.93265
972.10969	4.62606
968.25211	4.62606
964.39453	4.62606
960.53695	0.39730
956.67937	0.42445
952.82180	0.42445
948.96422	0.42445
945.10664	0.42445
941.24906	0.42445
937.39148	-0.14967
933.53391	-0.07060
929.67633	0.50321
925.81875	0.50321
921.96117	0.50321
918.10359	-2.57051
914.24602	-0.50476
910.38844	1.28703
906.53086	1.28703
902.67328	1.28703
898.81570	1.28703
894.95812	1.28703
891.10055	0.15988
887.24297	0.22919
883.38539	-1.29809
879.52781	0.25541
875.67023	1.53859
871.81266	0.20672
867.95508	-0.09728
864.09750	0.56216
860.23992	0.84174
856.38234	0.54549
852.52477	0.36966
848.66719	-0.12500
844.80961	-0.24034
840.95203	0.99439
837.09445	0.43764
833.23687	-0.08817
829.37930	6.14005
825.52172	2.32613
821.66414	2.57518
817.80656	0.22215
813.94898	-0.04243
810.09141	0.20741
806.23383	3.06932
802.37625	3.06932
798.51867	2.97447
794.66109	0.09445
790.80352	0.07844
786.94594	0.07844
783.08836	0.07844
779.23078	0.33718
775.37320	0.50317
771.51562	0.50317
767.65805	0.50317
763.80047	0.57567
759.94289	-0.07243
756.08531	-0.05323
752.22773	-0.15938
748.37016	-0.07608
744.51258	0.74533
740.65500	0.01372
736.79742	0.18107
732.93984	0.60500
729.08227	0.60500
725.22469	1.14038
721.36711	0.54529
717.50953	0.14055
713.65195	0.10215
709.79437	1.52676
705.93680	1.58969
702.07922	8.51765
698.22164	0.85795
694.36406	0.27880
690.50648	0.21635
686.64891	-0.38756
682.79133	-1.19117
678.93375	1.34321
675.07617	1.12181
671.21859	0.49424
667.36102	0.72385
663.50344	1.71832
659.64586	4.37654
655.78828	4.37654
651.93070	4.37654
648.07312	4.37654
644.21555	5.76010
640.35797	0.11977
636.50039	0.39995
632.64281	0.99741
628.78523	1.04996
624.92766	1.04996
621.07008	1.04996
617.21250	1.41119
613.35492	1.39489
609.49734	1.48434
605.63977	0.06680
601.78219	-0.22458
597.92461	-0.30647
594.06703	-0.34279
590.20945	-0.34279
586.35187	-0.34279
582.49430	0.06888
578.63672	0.36305
574.77914	0.36305
570.92156	0.36305
567.06398	-1.62353
563.20641	-14.76441
559.34883	-14.76441
555.49125	0.08031
551.63367	-2.74466
547.77609	-2.74466
543.91852	-2.74466
540.06094	1.69038
536.20336	0.37220
532.34578	-0.07648
528.48820	-0.27065
524.63062	-0.22512
520.77305	0.21071
516.91547	0.62434
513.05789	-0.25629
509.20031	-0.25629
505.34273	-0.25629
501.48516	0.34872
497.62758	2.32864
493.77000	17.57767
489.91242	17.57767
486.05484	17.57767
482.19727	2.12263
478.33969	2.29355
474.48211	2.29355
470.62453	2.29355
466.76695	6.09573
462.90937	6.09573
459.05180	6.09573
455.19422	-3.62944
451.33664	1.05924
447.47906	1.78962
443.62148	-0.46602
439.76391	-0.46602
435.90633	-0.46602
432.04875	-0.46602
428.19117	9.19681
424.33359	2.76991
420.47602	2.47275
416.61844	0.93225
412.76086	0.42945
408.90328	0.01236
405.04570	-0.77507
401.18812	-14.09611
397.33055	-14.09611
393.47297	-14.09611
389.61539	-0.21026
385.75781	0.19087
381.90023	0.24862
378.04266	0.66549
374.18508	0.66549
370.32750	-0.01554
366.46992	-0.18559
362.61234	0.56877
358.75477	0.77032
354.89719	13.97999
351.03961	13.97999
347.18203	13.97999
343.32445	0.52754
339.46687	0.72389
335.60930	1.21604
331.75172	0.87822
327.89414	-0.27270
324.03656	0.66576
320.17898	0.66576
316.32141	0.66576
312.46383	2.16447
308.60625	1.09714
304.74867	0.14333
300.89109	-0.14328
