14998.26375	0.35593
14994.40617	0.29354
14990.54859	0.32555
14986.69102	0.33794
14982.83344	0.33666
14978.97586	0.38084
14975.11828	0.36638
14971.26070	0.52001
14967.40312	0.59256
14963.54555	0.31339
14959.68797	0.32490
14955.83039	0.41966
14951.97281	0.39606
14948.11523	0.62202
14944.25766	0.81633
14940.40008	0.64300
14936.54250	0.58874
14932.68492	0.46997
14928.82734	0.32283
14924.96977	0.26981
14921.11219	0.28058
14917.25461	0.54147
14913.39703	0.60708
14909.53945	0.35924
14905.68187	0.35939
14901.82430	0.31051
14897.96672	0.28237
14894.10914	0.58236
14890.25156	0.77248
14886.39398	0.66000
14882.53641	0.55642
14878.67883	0.55016
14874.82125	0.50946
14870.96367	0.49807
14867.10609	0.54875
14863.24852	0.62063
14859.39094	0.66188
14855.53336	0.54112
14851.67578	0.44693
14847.81820	0.58233
14843.96062	0.64890
14840.10305	0.71373
14836.24547	0.75716
14832.38789	0.51911
14828.53031	0.54894
14824.67273	0.59707
14820.81516	0.45987
14816.95758	0.43027
14813.10000	0.37296
14809.24242	0.03981
14805.38484	0.04262
14801.52727	0.35288
14797.66969	0.57813
14793.81211	0.57551
14789.95453	0.46712
14786.09695	0.26632
14782.23937	0.22797
14778.38180	0.30777
14774.52422	0.43633
14770.66664	0.32052
14766.80906	0.17758
14762.95148	0.28641
14759.09391	0.36975
14755.23633	0.21697
14751.37875	0.34140
14747.52117	0.39534
14743.66359	0.34428
14739.80602	0.41604
14735.94844	0.39130
14732.09086	0.40097
14728.23328	0.51055
14724.37570	0.53297
14720.51812	0.49125
14716.66055	0.40907
14712.80297	0.25949
14708.94539	0.21207
14705.08781	0.24775
14701.23023	0.33147
14697.37266	0.39453
14693.51508	0.26563
14689.65750	0.24771
14685.79992	0.39996
14681.94234	0.43126
14678.08477	0.32736
14674.22719	0.29006
14670.36961	0.18462
14666.51203	0.08775
14662.65445	0.22300
14658.79687	0.44966
14654.93930	0.51917
14651.08172	0.42174
14647.22414	0.33360
14643.36656	0.38721
14639.50898	0.41595
14635.65141	0.33748
14631.79383	0.43687
14627.93625	0.70863
14624.07867	0.66661
14620.22109	0.51817
14616.36352	0.30309
14612.50594	0.16521
14608.64836	0.28779
14604.79078	0.55637
14600.93320	0.76272
14597.07562	0.59605
14593.21805	0.41938
14589.36047	0.52605
14585.50289	0.57121
14581.64531	0.47774
14577.78773	0.38081
14573.93016	0.21561
14570.07258	0.19562
14566.21500	0.32378
14562.35742	0.44589
14558.49984	0.56910
14554.64227	0.55386
14550.78469	0.34838
14546.92711	0.24650
14543.06953	0.27862
14539.21195	0.34461
14535.35437	0.34276
14531.49680	0.36532
14527.63922	0.55423
14523.78164	0.57404
14519.92406	0.30983
14516.06648	0.17468
14512.20891	0.32564
14508.35133	0.41469
14504.49375	0.33071
14500.63617	0.26697
14496.77859	0.28567
14492.92102	0.37346
14489.06344	0.41293
14485.20586	0.27431
14481.34828	0.13039
14477.49070	0.22859
14473.63312	0.41267
14469.77555	0.47276
14465.91797	0.48270
14462.06039	0.46320
14458.20281	0.36538
14454.34523	0.29879
14450.48766	0.36408
14446.63008	0.42326
14442.77250	0.37154
14438.91492	0.29675
14435.05734	0.27839
14431.19977	0.31618
14427.34219	0.33711
14423.48461	0.27764
14419.62703	0.27179
14415.76945	0.40283
14411.91187	0.54464
14408.05430	0.45013
14404.19672	0.29990
14400.33914	0.22333
14396.48156	0.27406
14392.62398	0.40948
14388.76641	0.39534
14384.90883	0.27351
14381.05125	0.20399
14377.19367	0.20376
14373.33609	0.26681
14369.47852	0.30935
14365.62094	0.32872
14361.76336	0.34952
14357.90578	0.32934
14354.04820	0.27633
14350.19062	0.28140
14346.33305	0.31829
14342.47547	0.33611
14338.61789	0.43844
14334.76031	0.52822
14330.90273	0.45315
14327.04516	0.32639
14323.18758	0.33724
14319.33000	0.49184
14315.47242	0.55726
14311.61484	0.53946
14307.75727	0.43959
14303.89969	0.35710
14300.04211	0.42289
14296.18453	0.38993
14292.32695	0.26988
14288.46937	0.29433
14284.61180	0.25521
14280.75422	0.22849
14276.89664	0.38535
14273.03906	0.41744
14269.18148	0.35114
14265.32391	0.34586
14261.46633	0.22856
14257.60875	0.15137
14253.75117	0.34230
14249.89359	0.49261
14246.03602	0.38533
14242.17844	0.33439
14238.32086	0.38373
14234.46328	0.41859
14230.60570	0.44599
14226.74812	0.37761
14222.89055	0.29390
14219.03297	0.28422
14215.17539	0.27347
14211.31781	0.32107
14207.46023	0.41692
14203.60266	0.41259
14199.74508	0.47604
14195.88750	0.66234
14192.02992	0.50820
14188.17234	0.28083
14184.31477	0.30990
14180.45719	0.33344
14176.59961	0.32489
14172.74203	0.35759
14168.88445	0.38008
14165.02687	0.31161
14161.16930	0.26175
14157.31172	0.32705
14153.45414	0.35291
14149.59656	0.30045
14145.73898	0.28084
14141.88141	0.31833
14138.02383	0.33459
14134.16625	0.33707
14130.30867	0.40355
14126.45109	0.41980
14122.59352	0.39616
14118.73594	0.44683
14114.87836	0.43856
14111.02078	0.33411
14107.16320	0.30039
14103.30562	0.35121
14099.44805	0.32707
14095.59047	0.24624
14091.73289	0.29378
14087.87531	0.40433
14084.01773	0.41849
14080.16016	0.45651
14076.30258	0.43250
14072.44500	0.31707
14068.58742	0.35392
14064.72984	0.37936
14060.87227	0.27442
14057.01469	0.28008
14053.15711	0.35349
14049.29953	0.39372
14045.44195	0.43641
14041.58437	0.40552
14037.72680	0.29736
14033.86922	0.27677
14030.01164	0.33107
14026.15406	0.32940
14022.29648	0.33939
14018.43891	0.39840
14014.58133	0.42912
14010.72375	0.47254
14006.86617	0.44068
14003.00859	0.33381
13999.15102	0.30568
13995.29344	0.33978
13991.43586	0.36438
13987.57828	0.41693
13983.72070	0.50304
13979.86312	0.50968
13976.00555	0.38602
13972.14797	0.27747
13968.29039	0.30861
13964.43281	0.39047
13960.57523	0.39053
13956.71766	0.43207
13952.86008	0.51407
13949.00250	0.46267
13945.14492	0.42588
13941.28734	0.41475
13937.42977	0.33933
13933.57219	0.25376
13929.71461	0.26150
13925.85703	0.36515
13921.99945	0.35497
13918.14187	0.30108
13914.28430	0.35237
13910.42672	0.34209
13906.56914	0.35616
13902.71156	0.43474
13898.85398	0.40081
13894.99641	0.36755
13891.13883	0.41018
13887.28125	0.32670
13883.42367	0.24814
13879.56609	0.29725
13875.70852	0.33167
13871.85094	0.34214
13867.99336	0.33814
13864.13578	0.26674
13860.27820	0.22664
13856.42062	0.23433
13852.56305	0.25854
13848.70547	0.29578
13844.84789	0.35227
13840.99031	0.41293
13837.13273	0.41286
13833.27516	0.36242
13829.41758	0.28133
13825.56000	0.26257
13821.70242	0.30773
13817.84484	0.31663
13813.98727	0.35108
13810.12969	0.36063
13806.27211	0.32822
13802.41453	0.34668
13798.55695	0.35135
13794.69937	0.35634
13790.84180	0.38231
13786.98422	0.37683
13783.12664	0.37364
13779.26906	0.33994
13775.41148	0.31477
13771.55391	0.37700
13767.69633	0.37848
13763.83875	0.32214
13759.98117	0.30266
13756.12359	0.24743
13752.26602	0.24037
13748.40844	0.32632
13744.55086	0.33312
13740.69328	0.28643
13736.83570	0.27321
13732.97812	0.28804
13729.12055	0.30967
13725.26297	0.32488
13721.40539	0.30894
13717.54781	0.26451
13713.69023	0.22398
13709.83266	0.24534
13705.97508	0.32012
13702.11750	0.30767
13698.25992	0.25622
13694.40234	0.29416
13690.54477	0.32922
13686.68719	0.29655
13682.82961	0.25487
13678.97203	0.27090
13675.11445	0.30455
13671.25687	0.26597
13667.39930	0.23262
13663.54172	0.26610
13659.68414	0.31851
13655.82656	0.34960
13651.96898	0.35023
13648.11141	0.34712
13644.25383	0.34577
13640.39625	0.31706
13636.53867	0.28364
13632.68109	0.30372
13628.82352	0.36974
13624.96594	0.36178
13621.10836	0.30565
13617.25078	0.32646
13613.39320	0.30208
13609.53562	0.25019
13605.67805	0.31835
13601.82047	0.37371
13597.96289	0.34774
13594.10531	0.35557
13590.24773	0.34258
13586.39016	0.29572
13582.53258	0.29974
13578.67500	0.34499
13574.81742	0.35082
13570.95984	0.35424
13567.10227	0.35850
13563.24469	0.30035
13559.38711	0.28450
13555.52953	0.30525
13551.67195	0.32430
13547.81437	0.37683
13543.95680	0.37072
13540.09922	0.33485
13536.24164	0.35537
13532.38406	0.34137
13528.52648	0.29357
13524.66891	0.27208
13520.81133	0.27590
13516.95375	0.30882
13513.09617	0.36087
13509.23859	0.34994
13505.38102	0.30547
13501.52344	0.30852
13497.66586	0.30302
13493.80828	0.30118
13489.95070	0.34789
13486.09312	0.33348
13482.23555	0.30807
13478.37797	0.36430
13474.52039	0.38987
13470.66281	0.33486
13466.80523	0.35672
13462.94766	0.41499
13459.09008	0.40053
13455.23250	0.37657
13451.37492	0.34102
13447.51734	0.33693
13443.65977	0.38215
13439.80219	0.39288
13435.94461	0.40695
13432.08703	0.39759
13428.22945	0.37158
13424.37187	0.39895
13420.51430	0.36690
13416.65672	0.30514
13412.79914	0.30910
13408.94156	0.33651
13405.08398	0.33896
13401.22641	0.35513
13397.36883	0.37823
13393.51125	0.35344
13389.65367	0.32727
13385.79609	0.29128
13381.93852	0.25945
13378.08094	0.28804
13374.22336	0.32679
13370.36578	0.36552
13366.50820	0.39768
13362.65062	0.38687
13358.79305	0.35755
13354.93547	0.36707
13351.07789	0.41250
13347.22031	0.42308
13343.36273	0.39155
13339.50516	0.35035
13335.64758	0.33380
13331.79000	0.36993
13327.93242	0.38970
13324.07484	0.33962
13320.21727	0.31087
13316.35969	0.35181
13312.50211	0.35534
13308.64453	0.34433
13304.78695	0.36447
13300.92937	0.34033
13297.07180	0.30480
13293.21422	0.29993
13289.35664	0.30596
13285.49906	0.29716
13281.64148	0.26735
13277.78391	0.28273
13273.92633	0.30615
13270.06875	0.27948
13266.21117	0.28783
13262.35359	0.33197
13258.49602	0.33124
13254.63844	0.31817
13250.78086	0.32951
13246.92328	0.33008
13243.06570	0.31923
13239.20812	0.32486
13235.35055	0.32931
13231.49297	0.31732
13227.63539	0.32937
13223.77781	0.32920
13219.92023	0.29060
13216.06266	0.31335
13212.20508	0.35785
13208.34750	0.32193
13204.48992	0.28425
13200.63234	0.26396
13196.77477	0.27525
13192.91719	0.32798
13189.05961	0.33399
13185.20203	0.29519
13181.34445	0.27903
13177.48687	0.31770
13173.62930	0.35941
13169.77172	0.35905
13165.91414	0.35972
13162.05656	0.37005
13158.19898	0.34179
13154.34141	0.28976
13150.48383	0.26390
13146.62625	0.28527
13142.76867	0.31581
13138.91109	0.30459
13135.05352	0.29799
13131.19594	0.33968
13127.33836	0.35845
13123.48078	0.32048
13119.62320	0.32332
13115.76562	0.36106
13111.90805	0.35559
13108.05047	0.34346
13104.19289	0.34748
13100.33531	0.32991
13096.47773	0.31821
13092.62016	0.32660
13088.76258	0.33909
13084.90500	0.36767
13081.04742	0.39137
13077.18984	0.36822
13073.33227	0.30444
13069.47469	0.29147
13065.61711	0.36940
13061.75953	0.41108
13057.90195	0.37653
13054.04437	0.33283
13050.18680	0.28905
13046.32922	0.27524
13042.47164	0.30200
13038.61406	0.34317
13034.75648	0.35164
13030.89891	0.32961
13027.04133	0.29371
13023.18375	0.28456
13019.32617	0.32994
13015.46859	0.34535
13011.61102	0.32486
13007.75344	0.33633
13003.89586	0.37486
13000.03828	0.39987
12996.18070	0.38845
12992.32312	0.38026
12988.46555	0.37863
12984.60797	0.38288
12980.75039	0.38767
12976.89281	0.38149
12973.03523	0.40312
12969.17766	0.42580
12965.32008	0.42855
12961.46250	0.39348
12957.60492	0.34757
12953.74734	0.38934
12949.88977	0.42957
12946.03219	0.38948
12942.17461	0.34917
12938.31703	0.32990
12934.45945	0.33994
12930.60187	0.38635
12926.74430	0.41126
12922.88672	0.38068
12919.02914	0.35053
12915.17156	0.34274
12911.31398	0.35959
12907.45641	0.39472
12903.59883	0.40161
12899.74125	0.36776
12895.88367	0.32177
12892.02609	0.32872
12888.16852	0.37575
12884.31094	0.39794
12880.45336	0.42573
12876.59578	0.40673
12872.73820	0.35648
12868.88062	0.34499
12865.02305	0.32133
12861.16547	0.33105
12857.30789	0.37530
12853.45031	0.35057
12849.59273	0.32766
12845.73516	0.34684
12841.87758	0.34637
12838.02000	0.35051
12834.16242	0.34989
12830.30484	0.31553
12826.44727	0.31871
12822.58969	0.35104
12818.73211	0.34707
12814.87453	0.34391
12811.01695	0.35805
12807.15937	0.35279
12803.30180	0.34690
12799.44422	0.34737
12795.58664	0.35040
12791.72906	0.36419
12787.87148	0.35221
12784.01391	0.33114
12780.15633	0.34559
12776.29875	0.35821
12772.44117	0.36498
12768.58359	0.36849
12764.72602	0.33896
12760.86844	0.32486
12757.01086	0.33086
12753.15328	0.31029
12749.29570	0.31279
12745.43812	0.34517
12741.58055	0.35063
12737.72297	0.34613
12733.86539	0.33948
12730.00781	0.33348
12726.15023	0.34737
12722.29266	0.35166
12718.43508	0.34356
12714.57750	0.33156
12710.71992	0.31901
12706.86234	0.33236
12703.00477	0.32731
12699.14719	0.30192
12695.28961	0.31636
12691.43203	0.35213
12687.57445	0.35761
12683.71687	0.33457
12679.85930	0.33458
12676.00172	0.36342
12672.14414	0.36585
12668.28656	0.34938
12664.42898	0.34936
12660.57141	0.35923
12656.71383	0.35323
12652.85625	0.33735
12648.99867	0.34611
12645.14109	0.34581
12641.28352	0.32528
12637.42594	0.32537
12633.56836	0.33364
12629.71078	0.34419
12625.85320	0.37120
12621.99562	0.38206
12618.13805	0.35618
12614.28047	0.33263
12610.42289	0.34005
12606.56531	0.33709
12602.70773	0.30340
12598.85016	0.31205
12594.99258	0.35941
12591.13500	0.36423
12587.27742	0.37021
12583.41984	0.38588
12579.56227	0.33727
12575.70469	0.30874
12571.84711	0.34084
12567.98953	0.36009
12564.13195	0.36315
12560.27437	0.34901
12556.41680	0.31765
12552.55922	0.30940
12548.70164	0.32196
12544.84406	0.33318
12540.98648	0.31929
12537.12891	0.29899
12533.27133	0.30307
12529.41375	0.30553
12525.55617	0.32681
12521.69859	0.36684
12517.84102	0.36447
12513.98344	0.35285
12510.12586	0.36150
12506.26828	0.34718
12502.41070	0.30556
12498.55312	0.29716
12494.69555	0.32525
12490.83797	0.33259
12486.98039	0.32680
12483.12281	0.32131
12479.26523	0.31520
12475.40766	0.32739
12471.55008	0.32157
12467.69250	0.29467
12463.83492	0.29559
12459.97734	0.31976
12456.11977	0.34979
12452.26219	0.36360
12448.40461	0.35791
12444.54703	0.36369
12440.68945	0.37709
12436.83187	0.38050
12432.97430	0.36060
12429.11672	0.31628
12425.25914	0.30190
12421.40156	0.31170
12417.54398	0.30594
12413.68641	0.32472
12409.82883	0.35018
12405.97125	0.32741
12402.11367	0.30002
12398.25609	0.30502
12394.39852	0.34493
12390.54094	0.38102
12386.68336	0.36006
12382.82578	0.32045
12378.96820	0.31576
12375.11062	0.34446
12371.25305	0.35027
12367.39547	0.31434
12363.53789	0.30653
12359.68031	0.32833
12355.82273	0.31908
12351.96516	0.32306
12348.10758	0.34639
12344.25000	0.33321
12340.39242	0.32609
12336.53484	0.34710
12332.67727	0.36225
12328.81969	0.33938
12324.96211	0.30612
12321.10453	0.31216
12317.24695	0.32390
12313.38937	0.32091
12309.53180	0.32163
12305.67422	0.31493
12301.81664	0.30814
12297.95906	0.31082
12294.10148	0.32011
12290.24391	0.33028
12286.38633	0.34253
12282.52875	0.35964
12278.67117	0.34558
12274.81359	0.31582
12270.95602	0.33013
12267.09844	0.34913
12263.24086	0.33202
12259.38328	0.32426
12255.52570	0.33952
12251.66812	0.34843
12247.81055	0.35507
12243.95297	0.35460
12240.09539	0.32134
12236.23781	0.30594
12232.38023	0.33071
12228.52266	0.34195
12224.66508	0.36343
12220.80750	0.38622
12216.94992	0.36927
12213.09234	0.37318
12209.23477	0.37911
12205.37719	0.34161
12201.51961	0.31722
12197.66203	0.32082
12193.80445	0.32398
12189.94687	0.31972
12186.08930	0.34358
12182.23172	0.37607
12178.37414	0.35321
12174.51656	0.33560
12170.65898	0.35286
12166.80141	0.33465
12162.94383	0.30462
12159.08625	0.30687
12155.22867	0.31998
12151.37109	0.33548
12147.51352	0.35291
12143.65594	0.35452
12139.79836	0.33410
12135.94078	0.30944
12132.08320	0.30123
12128.22562	0.32921
12124.36805	0.36526
12120.51047	0.34486
12116.65289	0.28288
12112.79531	0.25647
12108.93773	0.29950
12105.08016	0.35667
12101.22258	0.34849
12097.36500	0.33219
12093.50742	0.34140
12089.64984	0.34559
12085.79227	0.35400
12081.93469	0.35239
12078.07711	0.34008
12074.21953	0.33937
12070.36195	0.32815
12066.50437	0.31173
12062.64680	0.32784
12058.78922	0.35912
12054.93164	0.36377
12051.07406	0.34964
12047.21648	0.33650
12043.35891	0.32126
12039.50133	0.31138
12035.64375	0.31774
12031.78617	0.33803
12027.92859	0.35140
12024.07102	0.35526
12020.21344	0.35456
12016.35586	0.34278
12012.49828	0.34539
12008.64070	0.34960
12004.78312	0.33090
12000.92555	0.32342
11997.06797	0.33535
11993.21039	0.33311
11989.35281	0.31057
11985.49523	0.30984
11981.63766	0.33927
11977.78008	0.34939
11973.92250	0.32937
11970.06492	0.32077
11966.20734	0.32503
11962.34977	0.30068
11958.49219	0.27714
11954.63461	0.30304
11950.77703	0.32459
11946.91945	0.31778
11943.06187	0.30971
11939.20430	0.29998
11935.34672	0.31528
11931.48914	0.34505
11927.63156	0.34151
11923.77398	0.32941
11919.91641	0.34262
11916.05883	0.34432
11912.20125	0.31387
11908.34367	0.30704
11904.48609	0.32895
11900.62852	0.34688
11896.77094	0.35207
11892.91336	0.33063
11889.05578	0.32100
11885.19820	0.34164
11881.34062	0.33606
11877.48305	0.32539
11873.62547	0.33046
11869.76789	0.30603
11865.91031	0.28787
11862.05273	0.31371
11858.19516	0.32275
11854.33758	0.30710
11850.48000	0.31484
11846.62242	0.33434
11842.76484	0.33695
11838.90727	0.31623
11835.04969	0.30707
11831.19211	0.33325
11827.33453	0.33868
11823.47695	0.30083
11819.61937	0.27896
11815.76180	0.30329
11811.90422	0.32515
11808.04664	0.31374
11804.18906	0.32203
11800.33148	0.34185
11796.47391	0.32313
11792.61633	0.30606
11788.75875	0.32044
11784.90117	0.34965
11781.04359	0.36366
11777.18602	0.34374
11773.32844	0.33428
11769.47086	0.35496
11765.61328	0.36188
11761.75570	0.33739
11757.89812	0.31623
11754.04055	0.31406
11750.18297	0.31109
11746.32539	0.30869
11742.46781	0.32638
11738.61023	0.34986
11734.75266	0.33776
11730.89508	0.30723
11727.03750	0.31858
11723.17992	0.34373
11719.32234	0.33708
11715.46477	0.31840
11711.60719	0.31638
11707.74961	0.33358
11703.89203	0.33133
11700.03445	0.31807
11696.17687	0.33123
11692.31930	0.34208
11688.46172	0.32770
11684.60414	0.30584
11680.74656	0.30533
11676.88898	0.33022
11673.03141	0.33921
11669.17383	0.32065
11665.31625	0.30506
11661.45867	0.31226
11657.60109	0.33366
11653.74352	0.34436
11649.88594	0.34588
11646.02836	0.34721
11642.17078	0.34151
11638.31320	0.33157
11634.45562	0.31122
11630.59805	0.30041
11626.74047	0.30446
11622.88289	0.29473
11619.02531	0.29539
11615.16773	0.29799
11611.31016	0.28882
11607.45258	0.30843
11603.59500	0.32821
11599.73742	0.32248
11595.87984	0.31805
11592.02227	0.31073
11588.16469	0.30584
11584.30711	0.31309
11580.44953	0.31774
11576.59195	0.32421
11572.73437	0.33461
11568.87680	0.32612
11565.01922	0.31520
11561.16164	0.32249
11557.30406	0.32836
11553.44648	0.32147
11549.58891	0.30563
11545.73133	0.30067
11541.87375	0.30912
11538.01617	0.31000
11534.15859	0.30900
11530.30102	0.31447
11526.44344	0.32274
11522.58586	0.32106
11518.72828	0.31685
11514.87070	0.33059
11511.01312	0.32782
11507.15555	0.30437
11503.29797	0.31120
11499.44039	0.33730
11495.58281	0.34013
11491.72523	0.32917
11487.86766	0.33120
11484.01008	0.33631
11480.15250	0.33189
11476.29492	0.33216
11472.43734	0.32566
11468.57977	0.31038
11464.72219	0.31146
11460.86461	0.31469
11457.00703	0.31447
11453.14945	0.31836
11449.29187	0.31400
11445.43430	0.30941
11441.57672	0.30772
11437.71914	0.30946
11433.86156	0.31554
11430.00398	0.32361
11426.14641	0.34521
11422.28883	0.35643
11418.43125	0.34987
11414.57367	0.34829
11410.71609	0.32865
11406.85852	0.30327
11403.00094	0.30326
11399.14336	0.31827
11395.28578	0.33539
11391.42820	0.34359
11387.57062	0.33962
11383.71305	0.32949
11379.85547	0.32679
11375.99789	0.33195
11372.14031	0.31767
11368.28273	0.30692
11364.42516	0.32684
11360.56758	0.33948
11356.71000	0.32955
11352.85242	0.31857
11348.99484	0.32104
11345.13727	0.33328
11341.27969	0.33363
11337.42211	0.31220
11333.56453	0.28832
11329.70695	0.29971
11325.84937	0.33770
11321.99180	0.34748
11318.13422	0.31919
11314.27664	0.29227
11310.41906	0.30752
11306.56148	0.32774
11302.70391	0.29967
11298.84633	0.29555
11294.98875	0.33980
11291.13117	0.34341
11287.27359	0.32394
11283.41602	0.34250
11279.55844	0.36150
11275.70086	0.33918
11271.84328	0.31989
11267.98570	0.32646
11264.12812	0.33380
11260.27055	0.33555
11256.41297	0.32762
11252.55539	0.31821
11248.69781	0.32395
11244.84023	0.32530
11240.98266	0.31329
11237.12508	0.31070
11233.26750	0.32293
11229.40992	0.33211
11225.55234	0.32162
11221.69477	0.30246
11217.83719	0.31261
11213.97961	0.34294
11210.12203	0.34789
11206.26445	0.33778
11202.40687	0.32607
11198.54930	0.30574
11194.69172	0.30345
11190.83414	0.31721
11186.97656	0.31637
11183.11898	0.31677
11179.26141	0.32804
11175.40383	0.32847
11171.54625	0.31739
11167.68867	0.30711
11163.83109	0.31026
11159.97352	0.32269
11156.11594	0.31903
11152.25836	0.31523
11148.40078	0.33121
11144.54320	0.33820
11140.68562	0.33194
11136.82805	0.32703
11132.97047	0.31745
11129.11289	0.31340
11125.25531	0.32255
11121.39773	0.32274
11117.54016	0.31516
11113.68258	0.31485
11109.82500	0.31870
11105.96742	0.32612
11102.10984	0.33534
11098.25227	0.33257
11094.39469	0.30853
11090.53711	0.29445
11086.67953	0.30892
11082.82195	0.31838
11078.96437	0.31744
11075.10680	0.31705
11071.24922	0.31764
11067.39164	0.32575
11063.53406	0.32855
11059.67648	0.32096
11055.81891	0.31606
11051.96133	0.32407
11048.10375	0.33646
11044.24617	0.33175
11040.38859	0.31672
11036.53102	0.31375
11032.67344	0.32442
11028.81586	0.32780
11024.95828	0.32899
11021.10070	0.33721
11017.24312	0.32666
11013.38555	0.30634
11009.52797	0.30348
11005.67039	0.31189
11001.81281	0.32369
10997.95523	0.32777
10994.09766	0.32516
10990.24008	0.32437
10986.38250	0.32340
10982.52492	0.32595
10978.66734	0.32370
10974.80977	0.32458
10970.95219	0.33663
10967.09461	0.32820
10963.23703	0.31675
10959.37945	0.32800
10955.52187	0.32789
10951.66430	0.31764
10947.80672	0.32121
10943.94914	0.32748
10940.09156	0.32113
10936.23398	0.31415
10932.37641	0.32572
10928.51883	0.33805
10924.66125	0.32980
10920.80367	0.31700
10916.94609	0.31445
10913.08852	0.32222
10909.23094	0.32942
10905.37336	0.32094
10901.51578	0.31171
10897.65820	0.31986
10893.80062	0.32910
10889.94305	0.32811
10886.08547	0.32542
10882.22789	0.32520
10878.37031	0.32367
10874.51273	0.31798
10870.65516	0.31412
10866.79758	0.31520
10862.94000	0.32229
10859.08242	0.33214
10855.22484	0.33510
10851.36727	0.33078
10847.50969	0.32376
10843.65211	0.32206
10839.79453	0.32830
10835.93695	0.32854
10832.07937	0.32348
10828.22180	0.32395
10824.36422	0.31956
10820.50664	0.30971
10816.64906	0.31188
10812.79148	0.32519
10808.93391	0.33367
10805.07633	0.32955
10801.21875	0.32400
10797.36117	0.32601
10793.50359	0.32718
10789.64602	0.32309
10785.78844	0.31803
10781.93086	0.32252
10778.07328	0.33356
10774.21570	0.33412
10770.35812	0.32785
10766.50055	0.32842
10762.64297	0.33210
10758.78539	0.32943
10754.92781	0.32357
10751.07023	0.32431
10747.21266	0.32872
10743.35508	0.32510
10739.49750	0.32424
10735.63992	0.33575
10731.78234	0.33226
10727.92477	0.31835
10724.06719	0.31886
10720.20961	0.32212
10716.35203	0.32743
10712.49445	0.32739
10708.63687	0.31956
10704.77930	0.32712
10700.92172	0.33303
10697.06414	0.33391
10693.20656	0.34276
10689.34898	0.33273
10685.49141	0.31608
10681.63383	0.31588
10677.77625	0.31255
10673.91867	0.30744
10670.06109	0.31082
10666.20352	0.31720
10662.34594	0.32096
10658.48836	0.32493
10654.63078	0.33085
10650.77320	0.32967
10646.91562	0.32501
10643.05805	0.31986
10639.20047	0.30861
10635.34289	0.30023
10631.48531	0.29985
10627.62773	0.30733
10623.77016	0.31882
10619.91258	0.32285
10616.05500	0.32244
10612.19742	0.32079
10608.33984	0.31936
10604.48227	0.32604
10600.62469	0.33172
10596.76711	0.32808
10592.90953	0.32267
10589.05195	0.31998
10585.19437	0.32100
10581.33680	0.31808
10577.47922	0.30803
10573.62164	0.30846
10569.76406	0.31723
10565.90648	0.31943
10562.04891	0.32403
10558.19133	0.33109
10554.33375	0.32843
10550.47617	0.31788
10546.61859	0.31340
10542.76102	0.32270
10538.90344	0.32978
10535.04586	0.32708
10531.18828	0.32245
10527.33070	0.31935
10523.47312	0.32232
10519.61555	0.32276
10515.75797	0.32204
10511.90039	0.33141
10508.04281	0.33045
10504.18523	0.31651
10500.32766	0.31745
10496.47008	0.32790
10492.61250	0.32312
10488.75492	0.31489
10484.89734	0.32047
10481.03977	0.32274
10477.18219	0.31882
10473.32461	0.31864
10469.46703	0.31208
10465.60945	0.30643
10461.75187	0.31531
10457.89430	0.32863
10454.03672	0.33217
10450.17914	0.32561
10446.32156	0.32194
10442.46398	0.32491
10438.60641	0.32581
10434.74883	0.32733
10430.89125	0.32933
10427.03367	0.32382
10423.17609	0.32236
10419.31852	0.33040
10415.46094	0.32943
10411.60336	0.31827
10407.74578	0.30931
10403.88820	0.30941
10400.03062	0.32061
10396.17305	0.32650
10392.31547	0.31952
10388.45789	0.31065
10384.60031	0.30716
10380.74273	0.31081
10376.88516	0.31202
10373.02758	0.31388
10369.17000	0.32105
10365.31242	0.31923
10361.45484	0.31449
10357.59727	0.31415
10353.73969	0.31603
10349.88211	0.32424
10346.02453	0.32785
10342.16695	0.32735
10338.30937	0.32750
10334.45180	0.32071
10330.59422	0.31424
10326.73664	0.30780
10322.87906	0.30635
10319.02148	0.31353
10315.16391	0.31396
10311.30633	0.31553
10307.44875	0.31828
10303.59117	0.31779
10299.73359	0.32187
10295.87602	0.31569
10292.01844	0.30748
10288.16086	0.31084
10284.30328	0.31455
10280.44570	0.31864
10276.58812	0.32179
10272.73055	0.32621
10268.87297	0.33024
10265.01539	0.32616
10261.15781	0.32123
10257.30023	0.31650
10253.44266	0.31358
10249.58508	0.31748
10245.72750	0.32332
10241.86992	0.32577
10238.01234	0.32461
10234.15477	0.32263
10230.29719	0.32156
10226.43961	0.32230
10222.58203	0.32031
10218.72445	0.31598
10214.86687	0.31563
10211.00930	0.31793
10207.15172	0.32581
10203.29414	0.33288
10199.43656	0.32663
10195.57898	0.31936
10191.72141	0.32238
10187.86383	0.32956
10184.00625	0.33204
10180.14867	0.32611
10176.29109	0.31810
10172.43352	0.31305
10168.57594	0.31292
10164.71836	0.31984
10160.86078	0.32118
10157.00320	0.31597
10153.14562	0.32302
10149.28805	0.33113
10145.43047	0.32617
10141.57289	0.32348
10137.71531	0.32578
10133.85773	0.32631
10130.00016	0.33102
10126.14258	0.33580
10122.28500	0.33052
10118.42742	0.32273
10114.56984	0.31971
10110.71227	0.32366
10106.85469	0.32978
10102.99711	0.32665
10099.13953	0.32443
10095.28195	0.32642
10091.42437	0.32413
10087.56680	0.32397
10083.70922	0.32525
10079.85164	0.32720
10075.99406	0.32887
10072.13648	0.32633
10068.27891	0.32370
10064.42133	0.32254
10060.56375	0.32601
10056.70617	0.32561
10052.84859	0.31907
10048.99102	0.32070
10045.13344	0.32322
10041.27586	0.32230
10037.41828	0.32301
10033.56070	0.32121
10029.70312	0.32026
10025.84555	0.32477
10021.98797	0.32760
10018.13039	0.31982
10014.27281	0.31429
10010.41523	0.31892
10006.55766	0.31852
10002.70008	0.31412
9998.84250	0.31260
9994.98492	0.31381
9991.12734	0.31418
9987.26977	0.30970
9983.41219	0.31252
9979.55461	0.31714
9975.69703	0.31387
9971.83945	0.31720
9967.98187	0.32000
9964.12430	0.31737
9960.26672	0.32350
9956.40914	0.32782
9952.55156	0.32467
9948.69398	0.32776
9944.83641	0.33027
9940.97883	0.32325
9937.12125	0.31579
9933.26367	0.31434
9929.40609	0.31997
9925.54852	0.32645
9921.69094	0.32667
9917.83336	0.32269
9913.97578	0.31957
9910.11820	0.32052
9906.26062	0.31747
9902.40305	0.31088
9898.54547	0.31607
9894.68789	0.32766
9890.83031	0.32760
9886.97273	0.32087
9883.11516	0.32142
9879.25758	0.32345
9875.40000	0.32188
9871.54242	0.31683
9867.68484	0.30754
9863.82727	0.30691
9859.96969	0.31683
9856.11211	0.32865
9852.25453	0.33250
9848.39695	0.32215
9844.53937	0.31697
9840.68180	0.32301
9836.82422	0.32257
9832.96664	0.31480
9829.10906	0.31555
9825.25148	0.32401
9821.39391	0.32151
9817.53633	0.31457
9813.67875	0.31533
9809.82117	0.31633
9805.96359	0.31959
9802.10602	0.32272
9798.24844	0.31631
9794.39086	0.31229
9790.53328	0.31914
9786.67570	0.32012
9782.81812	0.31105
9778.96055	0.30947
9775.10297	0.31434
9771.24539	0.31537
9767.38781	0.31760
9763.53023	0.32101
9759.67266	0.31961
9755.81508	0.31817
9751.95750	0.32031
9748.09992	0.32178
9744.24234	0.31895
9740.38477	0.31508
9736.52719	0.31630
9732.66961	0.31900
9728.81203	0.32127
9724.95445	0.32424
9721.09687	0.31992
9717.23930	0.31307
9713.38172	0.31247
9709.52414	0.31531
9705.66656	0.31870
9701.80898	0.31490
9697.95141	0.30874
9694.09383	0.31241
9690.23625	0.31677
9686.37867	0.31597
9682.52109	0.31548
9678.66352	0.31500
9674.80594	0.31676
9670.94836	0.32194
9667.09078	0.32108
9663.23320	0.31232
9659.37562	0.30828
9655.51805	0.30944
9651.66047	0.30879
9647.80289	0.31056
9643.94531	0.31343
9640.08773	0.31354
9636.23016	0.31574
9632.37258	0.31885
9628.51500	0.32105
9624.65742	0.32365
9620.79984	0.32038
9616.94227	0.31412
9613.08469	0.31283
9609.22711	0.31225
9605.36953	0.31341
9601.51195	0.31804
9597.65437	0.31987
9593.79680	0.31797
9589.93922	0.31473
9586.08164	0.31591
9582.22406	0.31967
9578.36648	0.31413
9574.50891	0.30857
9570.65133	0.31591
9566.79375	0.31966
9562.93617	0.31551
9559.07859	0.31917
9555.22102	0.32164
9551.36344	0.31832
9547.50586	0.32025
9543.64828	0.32395
9539.79070	0.32762
9535.93312	0.32645
9532.07555	0.31881
9528.21797	0.31783
9524.36039	0.31846
9520.50281	0.31552
9516.64523	0.31858
9512.78766	0.32544
9508.93008	0.32804
9505.07250	0.32353
9501.21492	0.32119
9497.35734	0.32482
9493.49977	0.32325
9489.64219	0.32190
9485.78461	0.32286
9481.92703	0.31811
9478.06945	0.31716
9474.21187	0.32124
9470.35430	0.32076
9466.49672	0.31702
9462.63914	0.31762
9458.78156	0.32275
9454.92398	0.32341
9451.06641	0.32142
9447.20883	0.32141
9443.35125	0.32071
9439.49367	0.32088
9435.63609	0.32208
9431.77852	0.32233
9427.92094	0.31917
9424.06336	0.31281
9420.20578	0.31276
9416.34820	0.31933
9412.49062	0.32028
9408.63305	0.31883
9404.77547	0.32079
9400.91789	0.31773
9397.06031	0.31627
9393.20273	0.31917
9389.34516	0.31211
9385.48758	0.30742
9381.63000	0.31502
9377.77242	0.31895
9373.91484	0.31803
9370.05727	0.31577
9366.19969	0.31261
9362.34211	0.31406
9358.48453	0.31494
9354.62695	0.31586
9350.76937	0.31760
9346.91180	0.31058
9343.05422	0.30500
9339.19664	0.31035
9335.33906	0.31723
9331.48148	0.31991
9327.62391	0.31749
9323.76633	0.31468
9319.90875	0.31583
9316.05117	0.31629
9312.19359	0.31448
9308.33602	0.31416
9304.47844	0.31381
9300.62086	0.31306
9296.76328	0.31519
9292.90570	0.31662
9289.04812	0.31810
9285.19055	0.32162
9281.33297	0.32060
9277.47539	0.31706
9273.61781	0.31674
9269.76023	0.31852
9265.90266	0.32092
9262.04508	0.32370
9258.18750	0.32442
9254.32992	0.32054
9250.47234	0.31692
9246.61477	0.31701
9242.75719	0.31809
9238.89961	0.31813
9235.04203	0.31661
9231.18445	0.31521
9227.32687	0.31566
9223.46930	0.31603
9219.61172	0.31438
9215.75414	0.31543
9211.89656	0.31786
9208.03898	0.31377
9204.18141	0.31367
9200.32383	0.32032
9196.46625	0.31805
9192.60867	0.31425
9188.75109	0.31601
9184.89352	0.31478
9181.03594	0.31586
9177.17836	0.31866
9173.32078	0.31799
9169.46320	0.31881
9165.60562	0.31823
9161.74805	0.31625
9157.89047	0.31543
9154.03289	0.31428
9150.17531	0.31606
9146.31773	0.31795
9142.46016	0.31706
9138.60258	0.31463
9134.74500	0.31185
9130.88742	0.31423
9127.02984	0.31871
9123.17227	0.31854
9119.31469	0.31764
9115.45711	0.31833
9111.59953	0.31636
9107.74195	0.31308
9103.88437	0.31471
9100.02680	0.31797
9096.16922	0.31442
9092.31164	0.30941
9088.45406	0.31206
9084.59648	0.31487
9080.73891	0.31290
9076.88133	0.31396
9073.02375	0.31584
9069.16617	0.31524
9065.30859	0.31618
9061.45102	0.31646
9057.59344	0.31331
9053.73586	0.31118
9049.87828	0.31400
9046.02070	0.31621
9042.16312	0.31570
9038.30555	0.31684
9034.44797	0.31511
9030.59039	0.31198
9026.73281	0.31415
9022.87523	0.31480
9019.01766	0.31254
9015.16008	0.31418
9011.30250	0.31461
9007.44492	0.31178
9003.58734	0.31323
8999.72977	0.31547
8995.87219	0.31479
8992.01461	0.31623
8988.15703	0.31666
8984.29945	0.31323
8980.44187	0.31044
8976.58430	0.30827
8972.72672	0.30627
8968.86914	0.30819
8965.01156	0.31310
8961.15398	0.31514
8957.29641	0.31430
8953.43883	0.31302
8949.58125	0.31100
8945.72367	0.30985
8941.86609	0.31073
8938.00852	0.31206
8934.15094	0.31205
8930.29336	0.31378
8926.43578	0.31775
8922.57820	0.31691
8918.72062	0.31277
8914.86305	0.31024
8911.00547	0.30850
8907.14789	0.30809
8903.29031	0.30937
8899.43273	0.31110
8895.57516	0.31076
8891.71758	0.31124
8887.86000	0.31439
8884.00242	0.31277
8880.14484	0.30847
8876.28727	0.30880
8872.42969	0.31314
8868.57211	0.31602
8864.71453	0.31436
8860.85695	0.31362
8856.99937	0.31262
8853.14180	0.30874
8849.28422	0.30869
8845.42664	0.31161
8841.56906	0.31129
8837.71148	0.30899
8833.85391	0.31027
8829.99633	0.31264
8826.13875	0.31033
8822.28117	0.30867
8818.42359	0.31092
8814.56602	0.31212
8810.70844	0.31144
8806.85086	0.31171
8802.99328	0.31208
8799.13570	0.31060
8795.27812	0.30885
8791.42055	0.30755
8787.56297	0.30774
8783.70539	0.30876
8779.84781	0.30809
8775.99023	0.30922
8772.13266	0.31104
8768.27508	0.31078
8764.41750	0.31269
8760.55992	0.31427
8756.70234	0.31287
8752.84477	0.31129
8748.98719	0.30958
8745.12961	0.31065
8741.27203	0.31435
8737.41445	0.31355
8733.55687	0.30975
8729.69930	0.31017
8725.84172	0.31261
8721.98414	0.31245
8718.12656	0.31067
8714.26898	0.30825
8710.41141	0.30830
8706.55383	0.31134
8702.69625	0.31182
8698.83867	0.31162
8694.98109	0.31358
8691.12352	0.31423
8687.26594	0.31234
8683.40836	0.31085
8679.55078	0.31155
8675.69320	0.31042
8671.83562	0.30857
8667.97805	0.30935
8664.12047	0.31051
8660.26289	0.31283
8656.40531	0.31319
8652.54773	0.30988
8648.69016	0.30829
8644.83258	0.30742
8640.97500	0.30722
8637.11742	0.30939
8633.25984	0.30961
8629.40227	0.30816
8625.54469	0.30932
8621.68711	0.31117
8617.82953	0.31006
8613.97195	0.30882
8610.11437	0.31152
8606.25680	0.31196
8602.39922	0.30662
8598.54164	0.30583
8594.68406	0.30797
8590.82648	0.30550
8586.96891	0.30512
8583.11133	0.30775
8579.25375	0.30927
8575.39617	0.31064
8571.53859	0.31073
8567.68102	0.30970
8563.82344	0.30988
8559.96586	0.31109
8556.10828	0.31092
8552.25070	0.31034
8548.39312	0.30980
8544.53555	0.30802
8540.67797	0.30898
8536.82039	0.30976
8532.96281	0.30514
8529.10523	0.30320
8525.24766	0.30665
8521.39008	0.30751
8517.53250	0.30666
8513.67492	0.30772
8509.81734	0.30728
8505.95977	0.30566
8502.10219	0.30550
8498.24461	0.30575
8494.38703	0.30548
8490.52945	0.30465
8486.67187	0.30404
8482.81430	0.30352
8478.95672	0.30363
8475.09914	0.30654
8471.24156	0.30953
8467.38398	0.30816
8463.52641	0.30507
8459.66883	0.30444
8455.81125	0.30521
8451.95367	0.30484
8448.09609	0.30428
8444.23852	0.30582
8440.38094	0.30811
8436.52336	0.30914
8432.66578	0.30667
8428.80820	0.30260
8424.95062	0.30452
8421.09305	0.30731
8417.23547	0.30481
8413.37789	0.30471
8409.52031	0.30633
8405.66273	0.30528
8401.80516	0.30413
8397.94758	0.30308
8394.09000	0.30233
8390.23242	0.30341
8386.37484	0.30480
8382.51727	0.30388
8378.65969	0.30222
8374.80211	0.30205
8370.94453	0.30306
8367.08695	0.30474
8363.22937	0.30519
8359.37180	0.30479
8355.51422	0.30373
8351.65664	0.30142
8347.79906	0.30135
8343.94148	0.30260
8340.08391	0.30287
8336.22633	0.30416
8332.36875	0.30466
8328.51117	0.30400
8324.65359	0.30460
8320.79602	0.30430
8316.93844	0.30324
8313.08086	0.30283
8309.22328	0.30265
8305.36570	0.30494
8301.50812	0.30568
8297.65055	0.30243
8293.79297	0.30219
8289.93539	0.30370
8286.07781	0.30306
8282.22023	0.30207
8278.36266	0.30158
8274.50508	0.30268
8270.64750	0.30438
8266.78992	0.30448
8262.93234	0.30359
8259.07477	0.30338
8255.21719	0.30281
8251.35961	0.30213
8247.50203	0.30416
8243.64445	0.30465
8239.78687	0.30221
8235.92930	0.30202
8232.07172	0.30257
8228.21414	0.30259
8224.35656	0.30351
8220.49898	0.30432
8216.64141	0.30484
8212.78383	0.30509
8208.92625	0.30438
8205.06867	0.30384
8201.21109	0.30418
8197.35352	0.30299
8193.49594	0.30154
8189.63836	0.30148
8185.78078	0.30075
8181.92320	0.30131
8178.06562	0.30286
8174.20805	0.30274
8170.35047	0.30236
8166.49289	0.30223
8162.63531	0.30268
8158.77773	0.30284
8154.92016	0.30192
8151.06258	0.30225
8147.20500	0.30263
8143.34742	0.30163
8139.48984	0.30235
8135.63227	0.30310
8131.77469	0.30089
8127.91711	0.29995
8124.05953	0.30116
8120.20195	0.30088
8116.34437	0.29936
8112.48680	0.29897
8108.62922	0.30108
8104.77164	0.30302
8100.91406	0.30301
8097.05648	0.30270
8093.19891	0.30217
8089.34133	0.30174
8085.48375	0.30150
8081.62617	0.30155
8077.76859	0.30194
8073.91102	0.30176
8070.05344	0.30141
8066.19586	0.30040
8062.33828	0.30040
8058.48070	0.30288
8054.62312	0.30293
8050.76555	0.30063
8046.90797	0.30034
8043.05039	0.30025
8039.19281	0.30019
8035.33523	0.30186
8031.47766	0.30329
8027.62008	0.30265
8023.76250	0.30005
8019.90492	0.29924
8016.04734	0.30029
8012.18977	0.29990
8008.33219	0.30075
8004.47461	0.30151
8000.61703	0.30021
7996.75945	0.30013
7992.90187	0.29990
7989.04430	0.29945
7985.18672	0.29995
7981.32914	0.30063
7977.47156	0.30179
7973.61398	0.30180
7969.75641	0.30129
7965.89883	0.30074
7962.04125	0.29996
7958.18367	0.30063
7954.32609	0.29988
7950.46852	0.29838
7946.61094	0.29979
7942.75336	0.30102
7938.89578	0.30031
7935.03820	0.29934
7931.18062	0.29943
7927.32305	0.30099
7923.46547	0.30204
7919.60789	0.30132
7915.75031	0.30014
7911.89273	0.29972
7908.03516	0.29876
7904.17758	0.29818
7900.32000	0.30039
7896.46242	0.30197
7892.60484	0.30197
7888.74727	0.30295
7884.88969	0.30188
7881.03211	0.29961
7877.17453	0.29996
7873.31695	0.30023
7869.45937	0.29963
7865.60180	0.29939
7861.74422	0.29892
7857.88664	0.29925
7854.02906	0.29937
7850.17148	0.29937
7846.31391	0.30100
7842.45633	0.30128
7838.59875	0.29942
7834.74117	0.29856
7830.88359	0.29911
7827.02602	0.29933
7823.16844	0.29838
7819.31086	0.29781
7815.45328	0.29852
7811.59570	0.29896
7807.73812	0.29815
7803.88055	0.29760
7800.02297	0.29808
7796.16539	0.29857
7792.30781	0.29940
7788.45023	0.29983
7784.59266	0.29867
7780.73508	0.29828
7776.87750	0.29925
7773.01992	0.29847
7769.16234	0.29667
7765.30477	0.29725
7761.44719	0.29855
7757.58961	0.29869
7753.73203	0.29914
7749.87445	0.29907
7746.01687	0.29756
7742.15930	0.29721
7738.30172	0.29831
7734.44414	0.29780
7730.58656	0.29734
7726.72898	0.29882
7722.87141	0.29846
7719.01383	0.29631
7715.15625	0.29623
7711.29867	0.29840
7707.44109	0.29957
7703.58352	0.29842
7699.72594	0.29740
7695.86836	0.29663
7692.01078	0.29599
7688.15320	0.29665
7684.29562	0.29734
7680.43805	0.29727
7676.58047	0.29628
7672.72289	0.29598
7668.86531	0.29776
7665.00773	0.29853
7661.15016	0.29844
7657.29258	0.29955
7653.43500	0.29937
7649.57742	0.29738
7645.71984	0.29622
7641.86227	0.29649
7638.00469	0.29743
7634.14711	0.29840
7630.28953	0.29844
7626.43195	0.29770
7622.57437	0.29738
7618.71680	0.29703
7614.85922	0.29613
7611.00164	0.29606
7607.14406	0.29685
7603.28648	0.29695
7599.42891	0.29678
7595.57133	0.29718
7591.71375	0.29688
7587.85617	0.29593
7583.99859	0.29592
7580.14102	0.29620
7576.28344	0.29623
7572.42586	0.29643
7568.56828	0.29669
7564.71070	0.29764
7560.85312	0.29867
7556.99555	0.29835
7553.13797	0.29737
7549.28039	0.29634
7545.42281	0.29616
7541.56523	0.29676
7537.70766	0.29627
7533.85008	0.29621
7529.99250	0.29681
7526.13492	0.29594
7522.27734	0.29603
7518.41977	0.29757
7514.56219	0.29754
7510.70461	0.29658
7506.84703	0.29602
7502.98945	0.29578
7499.13187	0.29627
7495.27430	0.29696
7491.41672	0.29731
7487.55914	0.29761
7483.70156	0.29723
7479.84398	0.29651
7475.98641	0.29681
7472.12883	0.29696
7468.27125	0.29614
7464.41367	0.29609
7460.55609	0.29629
7456.69852	0.29593
7452.84094	0.29668
7448.98336	0.29746
7445.12578	0.29624
7441.26820	0.29512
7437.41062	0.29569
7433.55305	0.29611
7429.69547	0.29600
7425.83789	0.29679
7421.98031	0.29730
7418.12273	0.29623
7414.26516	0.29594
7410.40758	0.29708
7406.55000	0.29737
7402.69242	0.29681
7398.83484	0.29628
7394.97727	0.29544
7391.11969	0.29561
7387.26211	0.29674
7383.40453	0.29611
7379.54695	0.29503
7375.68937	0.29594
7371.83180	0.29658
7367.97422	0.29595
7364.11664	0.29539
7360.25906	0.29551
7356.40148	0.29567
7352.54391	0.29534
7348.68633	0.29575
7344.82875	0.29606
7340.97117	0.29548
7337.11359	0.29592
7333.25602	0.29615
7329.39844	0.29534
7325.54086	0.29476
7321.68328	0.29481
7317.82570	0.29542
7313.96812	0.29548
7310.11055	0.29470
7306.25297	0.29471
7302.39539	0.29543
7298.53781	0.29573
7294.68023	0.29471
7290.82266	0.29398
7286.96508	0.29439
7283.10750	0.29431
7279.24992	0.29446
7275.39234	0.29457
7271.53477	0.29326
7267.67719	0.29255
7263.81961	0.29380
7259.96203	0.29524
7256.10445	0.29545
7252.24687	0.29498
7248.38930	0.29425
7244.53172	0.29364
7240.67414	0.29425
7236.81656	0.29471
7232.95898	0.29449
7229.10141	0.29489
7225.24383	0.29512
7221.38625	0.29471
7217.52867	0.29478
7213.67109	0.29556
7209.81352	0.29614
7205.95594	0.29630
7202.09836	0.29603
7198.24078	0.29501
7194.38320	0.29458
7190.52562	0.29475
7186.66805	0.29343
7182.81047	0.29243
7178.95289	0.29415
7175.09531	0.29600
7171.23773	0.29606
7167.38016	0.29476
7163.52258	0.29426
7159.66500	0.29407
7155.80742	0.29352
7151.94984	0.29378
7148.09227	0.29406
7144.23469	0.29414
7140.37711	0.29442
7136.51953	0.29419
7132.66195	0.29435
7128.80437	0.29488
7124.94680	0.29489
7121.08922	0.29414
7117.23164	0.29285
7113.37406	0.29265
7109.51648	0.29354
7105.65891	0.29441
7101.80133	0.29478
7097.94375	0.29481
7094.08617	0.29479
7090.22859	0.29455
7086.37102	0.29400
7082.51344	0.29359
7078.65586	0.29325
7074.79828	0.29317
7070.94070	0.29392
7067.08312	0.29398
7063.22555	0.29298
7059.36797	0.29287
7055.51039	0.29409
7051.65281	0.29569
7047.79523	0.29582
7043.93766	0.29458
7040.08008	0.29441
7036.22250	0.29417
7032.36492	0.29385
7028.50734	0.29519
7024.64977	0.29527
7020.79219	0.29421
7016.93461	0.29474
7013.07703	0.29517
7009.21945	0.29523
7005.36187	0.29543
7001.50430	0.29448
6997.64672	0.29385
6993.78914	0.29420
6989.93156	0.29377
6986.07398	0.29327
6982.21641	0.29343
6978.35883	0.29371
6974.50125	0.29403
6970.64367	0.29392
6966.78609	0.29379
6962.92852	0.29383
6959.07094	0.29391
6955.21336	0.29434
6951.35578	0.29430
6947.49820	0.29436
6943.64062	0.29445
6939.78305	0.29388
6935.92547	0.29431
6932.06789	0.29495
6928.21031	0.29468
6924.35273	0.29434
6920.49516	0.29391
6916.63758	0.29395
6912.78000	0.29440
6908.92242	0.29457
6905.06484	0.29424
6901.20727	0.29424
6897.34969	0.29546
6893.49211	0.29552
6889.63453	0.29415
6885.77695	0.29399
6881.91937	0.29451
6878.06180	0.29474
6874.20422	0.29502
6870.34664	0.29490
6866.48906	0.29480
6862.63148	0.29526
6858.77391	0.29479
6854.91633	0.29343
6851.05875	0.29346
6847.20117	0.29465
6843.34359	0.29518
6839.48602	0.29471
6835.62844	0.29419
6831.77086	0.29444
6827.91328	0.29480
6824.05570	0.29443
6820.19812	0.29405
6816.34055	0.29473
6812.48297	0.29550
6808.62539	0.29515
6804.76781	0.29398
6800.91023	0.29320
6797.05266	0.29425
6793.19508	0.29537
6789.33750	0.29515
6785.47992	0.29510
6781.62234	0.29478
6777.76477	0.29422
6773.90719	0.29435
6770.04961	0.29453
6766.19203	0.29454
6762.33445	0.29419
6758.47687	0.29407
6754.61930	0.29457
6750.76172	0.29483
6746.90414	0.29512
6743.04656	0.29510
6739.18898	0.29444
6735.33141	0.29406
6731.47383	0.29412
6727.61625	0.29413
6723.75867	0.29391
6719.90109	0.29419
6716.04352	0.29484
6712.18594	0.29435
6708.32836	0.29361
6704.47078	0.29450
6700.61320	0.29538
6696.75562	0.29448
6692.89805	0.29386
6689.04047	0.29443
6685.18289	0.29467
6681.32531	0.29487
6677.46773	0.29515
6673.61016	0.29453
6669.75258	0.29417
6665.89500	0.29483
6662.03742	0.29536
6658.17984	0.29553
6654.32227	0.29513
6650.46469	0.29470
6646.60711	0.29536
6642.74953	0.29525
6638.89195	0.29421
6635.03437	0.29428
6631.17680	0.29455
6627.31922	0.29448
6623.46164	0.29479
6619.60406	0.29547
6615.74648	0.29554
6611.88891	0.29437
6608.03133	0.29390
6604.17375	0.29460
6600.31617	0.29492
6596.45859	0.29483
6592.60102	0.29457
6588.74344	0.29399
6584.88586	0.29341
6581.02828	0.29363
6577.17070	0.29470
6573.31312	0.29550
6569.45555	0.29547
6565.59797	0.29477
6561.74039	0.29400
6557.88281	0.29367
6554.02523	0.29354
6550.16766	0.29387
6546.31008	0.29458
6542.45250	0.29466
6538.59492	0.29400
6534.73734	0.29357
6530.87977	0.29373
6527.02219	0.29409
6523.16461	0.29451
6519.30703	0.29456
6515.44945	0.29409
6511.59187	0.29432
6507.73430	0.29495
6503.87672	0.29466
6500.01914	0.29430
6496.16156	0.29457
6492.30398	0.29475
6488.44641	0.29471
6484.58883	0.29465
6480.73125	0.29486
6476.87367	0.29503
6473.01609	0.29456
6469.15852	0.29456
6465.30094	0.29498
6461.44336	0.29467
6457.58578	0.29430
6453.72820	0.29409
6449.87062	0.29405
6446.01305	0.29450
6442.15547	0.29435
6438.29789	0.29398
6434.44031	0.29451
6430.58273	0.29511
6426.72516	0.29501
6422.86758	0.29448
6419.01000	0.29425
6415.15242	0.29466
6411.29484	0.29514
6407.43727	0.29544
6403.57969	0.29587
6399.72211	0.29578
6395.86453	0.29493
6392.00695	0.29443
6388.14937	0.29433
6384.29180	0.29441
6380.43422	0.29463
6376.57664	0.29410
6372.71906	0.29398
6368.86148	0.29488
6365.00391	0.29466
6361.14633	0.29412
6357.28875	0.29479
6353.43117	0.29482
6349.57359	0.29466
6345.71602	0.29563
6341.85844	0.29567
6338.00086	0.29460
6334.14328	0.29434
6330.28570	0.29481
6326.42812	0.29509
6322.57055	0.29471
6318.71297	0.29413
6314.85539	0.29419
6310.99781	0.29461
6307.14023	0.29499
6303.28266	0.29513
6299.42508	0.29480
6295.56750	0.29456
6291.70992	0.29484
6287.85234	0.29484
6283.99477	0.29432
6280.13719	0.29429
6276.27961	0.29460
6272.42203	0.29424
6268.56445	0.29418
6264.70687	0.29490
6260.84930	0.29522
6256.99172	0.29519
6253.13414	0.29506
6249.27656	0.29495
6245.41898	0.29510
6241.56141	0.29500
6237.70383	0.29496
6233.84625	0.29527
6229.98867	0.29516
6226.13109	0.29471
6222.27352	0.29482
6218.41594	0.29492
6214.55836	0.29488
6210.70078	0.29533
6206.84320	0.29497
6202.98562	0.29423
6199.12805	0.29441
6195.27047	0.29490
6191.41289	0.29538
6187.55531	0.29519
6183.69773	0.29506
6179.84016	0.29543
6175.98258	0.29502
6172.12500	0.29473
6168.26742	0.29502
6164.40984	0.29502
6160.55227	0.29456
6156.69469	0.29428
6152.83711	0.29463
6148.97953	0.29495
6145.12195	0.29537
6141.26437	0.29524
6137.40680	0.29431
6133.54922	0.29465
6129.69164	0.29547
6125.83406	0.29526
6121.97648	0.29503
6118.11891	0.29485
6114.26133	0.29434
6110.40375	0.29423
6106.54617	0.29473
6102.68859	0.29527
6098.83102	0.29537
6094.97344	0.29514
6091.11586	0.29541
6087.25828	0.29615
6083.40070	0.29634
6079.54312	0.29594
6075.68555	0.29576
6071.82797	0.29591
6067.97039	0.29563
6064.11281	0.29513
6060.25523	0.29534
6056.39766	0.29558
6052.54008	0.29543
6048.68250	0.29591
6044.82492	0.29641
6040.96734	0.29614
6037.10977	0.29607
6033.25219	0.29621
6029.39461	0.29610
6025.53703	0.29602
6021.67945	0.29564
6017.82187	0.29507
6013.96430	0.29524
6010.10672	0.29571
6006.24914	0.29577
6002.39156	0.29645
5998.53398	0.29726
5994.67641	0.29663
5990.81883	0.29594
5986.96125	0.29617
5983.10367	0.29588
5979.24609	0.29520
5975.38852	0.29529
5971.53094	0.29587
5967.67336	0.29670
5963.81578	0.29748
5959.95820	0.29714
5956.10062	0.29612
5952.24305	0.29555
5948.38547	0.29555
5944.52789	0.29588
5940.67031	0.29604
5936.81273	0.29599
5932.95516	0.29598
5929.09758	0.29596
5925.24000	0.29608
5921.38242	0.29605
5917.52484	0.29553
5913.66727	0.29511
5909.80969	0.29552
5905.95211	0.29600
5902.09453	0.29590
5898.23695	0.29591
5894.37937	0.29584
5890.52180	0.29538
5886.66422	0.29510
5882.80664	0.29513
5878.94906	0.29538
5875.09148	0.29575
5871.23391	0.29572
5867.37633	0.29532
5863.51875	0.29543
5859.66117	0.29562
5855.80359	0.29515
5851.94602	0.29505
5848.08844	0.29542
5844.23086	0.29538
5840.37328	0.29540
5836.51570	0.29558
5832.65812	0.29557
5828.80055	0.29583
5824.94297	0.29599
5821.08539	0.29566
5817.22781	0.29565
5813.37023	0.29577
5809.51266	0.29589
5805.65508	0.29608
5801.79750	0.29569
5797.93992	0.29584
5794.08234	0.29666
5790.22477	0.29642
5786.36719	0.29574
5782.50961	0.29595
5778.65203	0.29639
5774.79445	0.29622
5770.93687	0.29545
5767.07930	0.29465
5763.22172	0.29496
5759.36414	0.29582
5755.50656	0.29614
5751.64898	0.29660
5747.79141	0.29652
5743.93383	0.29574
5740.07625	0.29567
5736.21867	0.29562
5732.36109	0.29543
5728.50352	0.29582
5724.64594	0.29596
5720.78836	0.29558
5716.93078	0.29516
5713.07320	0.29494
5709.21562	0.29555
5705.35805	0.29648
5701.50047	0.29635
5697.64289	0.29580
5693.78531	0.29562
5689.92773	0.29542
5686.07016	0.29565
5682.21258	0.29614
5678.35500	0.29586
5674.49742	0.29565
5670.63984	0.29601
5666.78227	0.29604
5662.92469	0.29583
5659.06711	0.29563
5655.20953	0.29551
5651.35195	0.29554
5647.49437	0.29541
5643.63680	0.29553
5639.77922	0.29580
5635.92164	0.29576
5632.06406	0.29574
5628.20648	0.29561
5624.34891	0.29507
5620.49133	0.29476
5616.63375	0.29509
5612.77617	0.29535
5608.91859	0.29555
5605.06102	0.29549
5601.20344	0.29514
5597.34586	0.29548
5593.48828	0.29588
5589.63070	0.29576
5585.77312	0.29549
5581.91555	0.29519
5578.05797	0.29526
5574.20039	0.29514
5570.34281	0.29489
5566.48523	0.29526
5562.62766	0.29558
5558.77008	0.29568
5554.91250	0.29573
5551.05492	0.29519
5547.19734	0.29477
5543.33977	0.29497
5539.48219	0.29505
5535.62461	0.29527
5531.76703	0.29532
5527.90945	0.29479
5524.05187	0.29481
5520.19430	0.29539
5516.33672	0.29574
5512.47914	0.29545
5508.62156	0.29460
5504.76398	0.29456
5500.90641	0.29506
5497.04883	0.29486
5493.19125	0.29455
5489.33367	0.29485
5485.47609	0.29546
5481.61852	0.29556
5477.76094	0.29463
5473.90336	0.29400
5470.04578	0.29440
5466.18820	0.29477
5462.33062	0.29511
5458.47305	0.29563
5454.61547	0.29562
5450.75789	0.29482
5446.90031	0.29426
5443.04273	0.29445
5439.18516	0.29433
5435.32758	0.29412
5431.47000	0.29409
5427.61242	0.29405
5423.75484	0.29420
5419.89727	0.29422
5416.03969	0.29448
5412.18211	0.29492
5408.32453	0.29437
5404.46695	0.29386
5400.60937	0.29412
5396.75180	0.29421
5392.89422	0.29389
5389.03664	0.29378
5385.17906	0.29393
5381.32148	0.29423
5377.46391	0.29421
5373.60633	0.29397
5369.74875	0.29430
5365.89117	0.29452
5362.03359	0.29435
5358.17602	0.29417
5354.31844	0.29393
5350.46086	0.29418
5346.60328	0.29453
5342.74570	0.29449
5338.88812	0.29453
5335.03055	0.29462
5331.17297	0.29434
5327.31539	0.29373
5323.45781	0.29364
5319.60023	0.29388
5315.74266	0.29383
5311.88508	0.29405
5308.02750	0.29422
5304.16992	0.29377
5300.31234	0.29334
5296.45477	0.29305
5292.59719	0.29291
5288.73961	0.29315
5284.88203	0.29333
5281.02445	0.29324
5277.16687	0.29349
5273.30930	0.29410
5269.45172	0.29419
5265.59414	0.29358
5261.73656	0.29316
5257.87898	0.29306
5254.02141	0.29303
5250.16383	0.29316
5246.30625	0.29307
5242.44867	0.29299
5238.59109	0.29324
5234.73352	0.29334
5230.87594	0.29311
5227.01836	0.29274
5223.16078	0.29260
5219.30320	0.29275
5215.44562	0.29315
5211.58805	0.29377
5207.73047	0.29353
5203.87289	0.29253
5200.01531	0.29215
5196.15773	0.29216
5192.30016	0.29253
5188.44258	0.29291
5184.58500	0.29286
5180.72742	0.29282
5176.86984	0.29269
5173.01227	0.29233
5169.15469	0.29198
5165.29711	0.29170
5161.43953	0.29179
5157.58195	0.29203
5153.72437	0.29220
5149.86680	0.29268
5146.00922	0.29290
5142.15164	0.29248
5138.29406	0.29229
5134.43648	0.29259
5130.57891	0.29266
5126.72133	0.29237
5122.86375	0.29217
5119.00617	0.29203
5115.14859	0.29177
5111.29102	0.29155
5107.43344	0.29179
5103.57586	0.29227
5099.71828	0.29221
5095.86070	0.29185
5092.00312	0.29173
5088.14555	0.29172
5084.28797	0.29157
5080.43039	0.29133
5076.57281	0.29147
5072.71523	0.29173
5068.85766	0.29169
5065.00008	0.29144
5061.14250	0.29109
5057.28492	0.29138
5053.42734	0.29183
5049.56977	0.29151
5045.71219	0.29145
5041.85461	0.29173
5037.99703	0.29176
5034.13945	0.29164
5030.28187	0.29128
5026.42430	0.29105
5022.56672	0.29091
5018.70914	0.29087
5014.85156	0.29128
5010.99398	0.29138
5007.13641	0.29085
5003.27883	0.29045
4999.42125	0.29049
4995.56367	0.29064
4991.70609	0.29057
4987.84852	0.29033
4983.99094	0.29022
4980.13336	0.29052
4976.27578	0.29075
4972.41820	0.29053
4968.56062	0.29067
4964.70305	0.29082
4960.84547	0.29049
4956.98789	0.29030
4953.13031	0.29028
4949.27273	0.29061
4945.41516	0.29082
4941.55758	0.29011
4937.70000	0.28954
4933.84242	0.28959
4929.98484	0.28970
4926.12727	0.28953
4922.26969	0.28915
4918.41211	0.28923
4914.55453	0.28956
4910.69695	0.28978
4906.83937	0.28997
4902.98180	0.28983
4899.12422	0.28957
4895.26664	0.28964
4891.40906	0.28984
4887.55148	0.28984
4883.69391	0.28956
4879.83633	0.28925
4875.97875	0.28903
4872.12117	0.28900
4868.26359	0.28903
4864.40602	0.28893
4860.54844	0.28895
4856.69086	0.28903
4852.83328	0.28896
4848.97570	0.28880
4845.11812	0.28857
4841.26055	0.28833
4837.40297	0.28807
4833.54539	0.28795
4829.68781	0.28794
4825.83023	0.28813
4821.97266	0.28842
4818.11508	0.28814
4814.25750	0.28775
4810.39992	0.28786
4806.54234	0.28791
4802.68477	0.28792
4798.82719	0.28780
4794.96961	0.28747
4791.11203	0.28754
4787.25445	0.28777
4783.39687	0.28781
4779.53930	0.28776
4775.68172	0.28742
4771.82414	0.28720
4767.96656	0.28738
4764.10898	0.28753
4760.25141	0.28760
4756.39383	0.28754
4752.53625	0.28721
4748.67867	0.28722
4744.82109	0.28734
4740.96352	0.28708
4737.10594	0.28704
4733.24836	0.28721
4729.39078	0.28733
4725.53320	0.28751
4721.67562	0.28733
4717.81805	0.28687
4713.96047	0.28686
4710.10289	0.28719
4706.24531	0.28707
4702.38773	0.28690
4698.53016	0.28689
4694.67258	0.28649
4690.81500	0.28638
4686.95742	0.28659
4683.09984	0.28661
4679.24227	0.28684
4675.38469	0.28680
4671.52711	0.28617
4667.66953	0.28589
4663.81195	0.28623
4659.95437	0.28634
4656.09680	0.28604
4652.23922	0.28586
4648.38164	0.28584
4644.52406	0.28589
4640.66648	0.28574
4636.80891	0.28566
4632.95133	0.28578
4629.09375	0.28543
4625.23617	0.28505
4621.37859	0.28505
4617.52102	0.28515
4613.66344	0.28516
4609.80586	0.28498
4605.94828	0.28486
4602.09070	0.28465
4598.23312	0.28458
4594.37555	0.28480
4590.51797	0.28473
4586.66039	0.28470
4582.80281	0.28476
4578.94523	0.28466
4575.08766	0.28441
4571.23008	0.28399
4567.37250	0.28391
4563.51492	0.28401
4559.65734	0.28417
4555.79977	0.28448
4551.94219	0.28425
4548.08461	0.28389
4544.22703	0.28386
4540.36945	0.28385
4536.51187	0.28387
4532.65430	0.28369
4528.79672	0.28371
4524.93914	0.28389
4521.08156	0.28354
4517.22398	0.28329
4513.36641	0.28335
4509.50883	0.28336
4505.65125	0.28332
4501.79367	0.28313
4497.93609	0.28310
4494.07852	0.28317
4490.22094	0.28296
4486.36336	0.28287
4482.50578	0.28292
4478.64820	0.28270
4474.79062	0.28253
4470.93305	0.28273
4467.07547	0.28269
4463.21789	0.28243
4459.36031	0.28254
4455.50273	0.28250
4451.64516	0.28211
4447.78758	0.28222
4443.93000	0.28257
4440.07242	0.28247
4436.21484	0.28215
4432.35727	0.28203
4428.49969	0.28215
4424.64211	0.28222
4420.78453	0.28201
4416.92695	0.28184
4413.06937	0.28197
4409.21180	0.28190
4405.35422	0.28139
4401.49664	0.28100
4397.63906	0.28131
4393.78148	0.28192
4389.92391	0.28188
4386.06633	0.28139
4382.20875	0.28121
4378.35117	0.28138
4374.49359	0.28141
4370.63602	0.28099
4366.77844	0.28084
4362.92086	0.28105
4359.06328	0.28085
4355.20570	0.28057
4351.34812	0.28052
4347.49055	0.28061
4343.63297	0.28079
4339.77539	0.28080
4335.91781	0.28072
4332.06023	0.28055
4328.20266	0.28045
4324.34508	0.28050
4320.48750	0.28039
4316.62992	0.28015
4312.77234	0.28004
4308.91477	0.28001
4305.05719	0.27992
4301.19961	0.27979
4297.34203	0.27964
4293.48445	0.27966
4289.62687	0.27973
4285.76930	0.27958
4281.91172	0.27958
4278.05414	0.27963
4274.19656	0.27937
4270.33898	0.27914
4266.48141	0.27920
4262.62383	0.27929
4258.76625	0.27916
4254.90867	0.27886
4251.05109	0.27862
4247.19352	0.27856
4243.33594	0.27843
4239.47836	0.27821
4235.62078	0.27831
4231.76320	0.27839
4227.90562	0.27832
4224.04805	0.27852
4220.19047	0.27856
4216.33289	0.27841
4212.47531	0.27829
4208.61773	0.27788
4204.76016	0.27746
4200.90258	0.27756
4197.04500	0.27781
4193.18742	0.27787
4189.32984	0.27798
4185.47227	0.27787
4181.61469	0.27749
4177.75711	0.27743
4173.89953	0.27745
4170.04195	0.27720
4166.18437	0.27713
4162.32680	0.27739
4158.46922	0.27743
4154.61164	0.27713
4150.75406	0.27704
4146.89648	0.27716
4143.03891	0.27704
4139.18133	0.27682
4135.32375	0.27686
4131.46617	0.27684
4127.60859	0.27660
4123.75102	0.27654
4119.89344	0.27656
4116.03586	0.27657
4112.17828	0.27674
4108.32070	0.27660
4104.46312	0.27622
4100.60555	0.27620
4096.74797	0.27637
4092.89039	0.27626
4089.03281	0.27595
4085.17523	0.27564
4081.31766	0.27567
4077.46008	0.27597
4073.60250	0.27601
4069.74492	0.27596
4065.88734	0.27594
4062.02977	0.27562
4058.17219	0.27521
4054.31461	0.27510
4050.45703	0.27527
4046.59945	0.27531
4042.74187	0.27499
4038.88430	0.27491
4035.02672	0.27492
4031.16914	0.27468
4027.31156	0.27474
4023.45398	0.27482
4019.59641	0.27463
4015.73883	0.27457
4011.88125	0.27453
4008.02367	0.27439
4004.16609	0.27436
4000.30852	0.27448
3996.45094	0.27431
3992.59336	0.27388
3988.73578	0.27378
3984.87820	0.27394
3981.02062	0.27400
3977.16305	0.27381
3973.30547	0.27348
3969.44789	0.27351
3965.59031	0.27359
3961.73273	0.27334
3957.87516	0.27327
3954.01758	0.27325
3950.16000	0.27300
3946.30242	0.27293
3942.44484	0.27307
3938.58727	0.27308
3934.72969	0.27286
3930.87211	0.27243
3927.01453	0.27231
3923.15695	0.27259
3919.29937	0.27277
3915.44180	0.27278
3911.58422	0.27265
3907.72664	0.27221
3903.86906	0.27180
3900.01148	0.27206
3896.15391	0.27221
3892.29633	0.27199
3888.43875	0.27166
3884.58117	0.27161
3880.72359	0.27178
3876.86602	0.27176
3873.00844	0.27149
3869.15086	0.27127
3865.29328	0.27148
3861.43570	0.27143
3857.57812	0.27109
3853.72055	0.27086
3849.86297	0.27091
3846.00539	0.27104
3842.14781	0.27106
3838.29023	0.27081
3834.43266	0.27067
3830.57508	0.27049
3826.71750	0.27036
3822.85992	0.27077
3819.00234	0.27148
3815.14477	0.27123
3811.28719	0.27086
3807.42961	0.27073
3803.57203	0.27046
3799.71445	0.27028
3795.85687	0.27044
3791.99930	0.27043
3788.14172	0.27016
3784.28414	0.26995
3780.42656	0.27005
3776.56898	0.26997
3772.71141	0.26974
3768.85383	0.26951
3764.99625	0.26926
3761.13867	0.26935
3757.28109	0.26927
3753.42352	0.26848
3749.56594	0.26816
3745.70836	0.26845
3741.85078	0.26806
3737.99320	0.26746
3734.13562	0.26689
3730.27805	0.26674
3726.42047	0.26702
3722.56289	0.26749
3718.70531	0.26752
3714.84773	0.26759
3710.99016	0.26752
3707.13258	0.26714
3703.27500	0.26756
3699.41742	0.26785
3695.55984	0.26731
3691.70227	0.26706
3687.84469	0.26752
3683.98711	0.26772
3680.12953	0.26777
3676.27195	0.26747
3672.41437	0.26726
3668.55680	0.26764
3664.69922	0.26771
3660.84164	0.26758
3656.98406	0.26739
3653.12648	0.26695
3649.26891	0.26654
3645.41133	0.26688
3641.55375	0.26697
3637.69617	0.26652
3633.83859	0.26586
3629.98102	0.26526
3626.12344	0.26512
3622.26586	0.26538
3618.40828	0.26569
3614.55070	0.26576
3610.69312	0.26560
3606.83555	0.26539
3602.97797	0.26538
3599.12039	0.26551
3595.26281	0.26526
3591.40523	0.26493
3587.54766	0.26518
3583.69008	0.26540
3579.83250	0.26547
3575.97492	0.26576
3572.11734	0.26552
3568.25977	0.26470
3564.40219	0.26455
3560.54461	0.26484
3556.68703	0.26501
3552.82945	0.26498
3548.97187	0.26464
3545.11430	0.26458
3541.25672	0.26475
3537.39914	0.26477
3533.54156	0.26478
3529.68398	0.26465
3525.82641	0.26454
3521.96883	0.26485
3518.11125	0.26502
3514.25367	0.26471
3510.39609	0.26434
3506.53852	0.26414
3502.68094	0.26413
3498.82336	0.26420
3494.96578	0.26429
3491.10820	0.26440
3487.25062	0.26417
3483.39305	0.26380
3479.53547	0.26383
3475.67789	0.26382
3471.82031	0.26363
3467.96273	0.26344
3464.10516	0.26332
3460.24758	0.26331
3456.39000	0.26324
3452.53242	0.26312
3448.67484	0.26296
3444.81727	0.26283
3440.95969	0.26285
3437.10211	0.26277
3433.24453	0.26261
3429.38695	0.26248
3425.52937	0.26227
3421.67180	0.26227
3417.81422	0.26239
3413.95664	0.26230
3410.09906	0.26236
3406.24148	0.26234
3402.38391	0.26197
3398.52633	0.26178
3394.66875	0.26159
3390.81117	0.26144
3386.95359	0.26166
3383.09602	0.26173
3379.23844	0.26167
3375.38086	0.26164
3371.52328	0.26130
3367.66570	0.26089
3363.80812	0.26078
3359.95055	0.26074
3356.09297	0.26063
3352.23539	0.26067
3348.37781	0.26060
3344.52023	0.26030
3340.66266	0.26016
3336.80508	0.26031
3332.94750	0.26032
3329.08992	0.26006
3325.23234	0.25998
3321.37477	0.26005
3317.51719	0.25988
3313.65961	0.25952
3309.80203	0.25921
3305.94445	0.25914
3302.08687	0.25926
3298.22930	0.25934
3294.37172	0.25922
3290.51414	0.25908
3286.65656	0.25904
3282.79898	0.25901
3278.94141	0.25902
3275.08383	0.25873
3271.22625	0.25843
3267.36867	0.25862
3263.51109	0.25859
3259.65352	0.25840
3255.79594	0.25848
3251.93836	0.25826
3248.08078	0.25790
3244.22320	0.25796
3240.36562	0.25806
3236.50805	0.25798
3232.65047	0.25775
3228.79289	0.25758
3224.93531	0.25761
3221.07773	0.25738
3217.22016	0.25697
3213.36258	0.25694
3209.50500	0.25706
3205.64742	0.25691
3201.78984	0.25674
3197.93227	0.25673
3194.07469	0.25666
3190.21711	0.25651
3186.35953	0.25648
3182.50195	0.25667
3178.64437	0.25672
3174.78680	0.25641
3170.92922	0.25614
3167.07164	0.25604
3163.21406	0.25591
3159.35648	0.25582
3155.49891	0.25567
3151.64133	0.25542
3147.78375	0.25534
3143.92617	0.25536
3140.06859	0.25520
3136.21102	0.25494
3132.35344	0.25483
3128.49586	0.25477
3124.63828	0.25455
3120.78070	0.25446
3116.92312	0.25451
3113.06555	0.25433
3109.20797	0.25411
3105.35039	0.25403
3101.49281	0.25384
3097.63523	0.25371
3093.77766	0.25391
3089.92008	0.25390
3086.06250	0.25350
3082.20492	0.25342
3078.34734	0.25343
3074.48977	0.25312
3070.63219	0.25301
3066.77461	0.25298
3062.91703	0.25261
3059.05945	0.25244
3055.20187	0.25262
3051.34430	0.25259
3047.48672	0.25234
3043.62914	0.25223
3039.77156	0.25225
3035.91398	0.25213
3032.05641	0.25177
3028.19883	0.25153
3024.34125	0.25160
3020.48367	0.25167
3016.62609	0.25144
3012.76852	0.25117
3008.91094	0.25108
3005.05336	0.25101
3001.19578	0.25079
2997.33820	0.25041
2993.48062	0.25035
2989.62305	0.25046
2985.76547	0.25019
2981.90789	0.25008
2978.05031	0.25020
2974.19273	0.25018
2970.33516	0.25020
2966.47758	0.25009
2962.62000	0.24972
2958.76242	0.24933
2954.90484	0.24912
2951.04727	0.24910
2947.18969	0.24904
2943.33211	0.24885
2939.47453	0.24868
2935.61695	0.24860
2931.75937	0.24843
2927.90180	0.24820
2924.04422	0.24795
2920.18664	0.24762
2916.32906	0.24762
2912.47148	0.24793
2908.61391	0.24785
2904.75633	0.24751
2900.89875	0.24722
2897.04117	0.24686
2893.18359	0.24673
2889.32602	0.24664
2885.46844	0.24633
2881.61086	0.24635
2877.75328	0.24638
2873.89570	0.24613
2870.03812	0.24621
2866.18055	0.24638
2862.32297	0.24609
2858.46539	0.24575
2854.60781	0.24568
2850.75023	0.24551
2846.89266	0.24520
2843.03508	0.24507
2839.17750	0.24516
2835.31992	0.24519
2831.46234	0.24491
2827.60477	0.24455
2823.74719	0.24433
2819.88961	0.24406
2816.03203	0.24382
2812.17445	0.24401
2808.31687	0.24435
2804.45930	0.24412
2800.60172	0.24366
2796.74414	0.24346
2792.88656	0.24328
2789.02898	0.24313
2785.17141	0.24297
2781.31383	0.24282
2777.45625	0.24273
2773.59867	0.24245
2769.74109	0.24216
2765.88352	0.24196
2762.02594	0.24183
2758.16836	0.24186
2754.31078	0.24184
2750.45320	0.24153
2746.59562	0.24115
2742.73805	0.24096
2738.88047	0.24083
2735.02289	0.24083
2731.16531	0.24097
2727.30773	0.24077
2723.45016	0.24034
2719.59258	0.24009
2715.73500	0.23993
2711.87742	0.23985
2708.01984	0.23979
2704.16227	0.23974
2700.30469	0.23942
2696.44711	0.23893
2692.58953	0.23877
2688.73195	0.23853
2684.87437	0.23832
2681.01680	0.23844
2677.15922	0.23850
2673.30164	0.23848
2669.44406	0.23837
2665.58648	0.23801
2661.72891	0.23752
2657.87133	0.23739
2654.01375	0.23753
2650.15617	0.23721
2646.29859	0.23666
2642.44102	0.23637
2638.58344	0.23628
2634.72586	0.23638
2630.86828	0.23639
2627.01070	0.23609
2623.15312	0.23553
2619.29555	0.23523
2615.43797	0.23521
2611.58039	0.23497
2607.72281	0.23479
2603.86523	0.23462
2600.00766	0.23429
2596.15008	0.23431
2592.29250	0.23414
2588.43492	0.23384
2584.57734	0.23401
2580.71977	0.23388
2576.86219	0.23318
2573.00461	0.23270
2569.14703	0.23265
2565.28945	0.23272
2561.43187	0.23260
2557.57430	0.23223
2553.71672	0.23188
2549.85914	0.23177
2546.00156	0.23157
2542.14398	0.23118
2538.28641	0.23105
2534.42883	0.23118
2530.57125	0.23092
2526.71367	0.23030
2522.85609	0.23018
2518.99852	0.23023
2515.14094	0.22979
2511.28336	0.22962
2507.42578	0.22973
2503.56820	0.22951
2499.71062	0.22922
2495.85305	0.22892
2491.99547	0.22856
2488.13789	0.22837
2484.28031	0.22834
2480.42273	0.22817
2476.56516	0.22777
2472.70758	0.22742
2468.85000	0.22720
2464.99242	0.22695
2461.13484	0.22674
2457.27727	0.22653
2453.41969	0.22635
2449.56211	0.22635
2445.70453	0.22617
2441.84695	0.22570
2437.98937	0.22564
2434.13180	0.22551
2430.27422	0.22481
2426.41664	0.22460
2422.55906	0.22476
2418.70148	0.22442
2414.84391	0.22411
2410.98633	0.22425
2407.12875	0.22426
2403.27117	0.22386
2399.41359	0.22339
2395.55602	0.22301
2391.69844	0.22281
2387.84086	0.22238
2383.98328	0.22110
2380.12570	0.21941
2376.26812	0.21800
2372.41055	0.21762
2368.55297	0.22011
2364.69539	0.22001
2360.83781	0.21844
2356.98023	0.21926
2353.12266	0.21379
2349.26508	0.21384
2345.40750	0.21690
2341.54992	0.21731
2337.69234	0.22084
2333.83477	0.22339
2329.97719	0.21392
2326.11961	0.21034
2322.26203	0.21450
2318.40445	0.21428
2314.54687	0.21387
2310.68930	0.21548
2306.83172	0.21576
2302.97414	0.21540
2299.11656	0.21597
2295.25898	0.21685
2291.40141	0.21675
2287.54383	0.21611
2283.68625	0.21600
2279.82867	0.21596
2275.97109	0.21616
2272.11352	0.21688
2268.25594	0.21708
2264.39836	0.21658
2260.54078	0.21591
2256.68320	0.21515
2252.82562	0.21484
2248.96805	0.21550
2245.11047	0.21503
2241.25289	0.21324
2237.39531	0.21271
2233.53773	0.21261
2229.68016	0.21253
2225.82258	0.21254
2221.96500	0.21146
2218.10742	0.21065
2214.24984	0.21051
2210.39227	0.21022
2206.53469	0.21013
2202.67711	0.20999
2198.81953	0.20937
2194.96195	0.20847
2191.10437	0.20807
2187.24680	0.20786
2183.38922	0.20765
2179.53164	0.20804
2175.67406	0.20815
2171.81648	0.20746
2167.95891	0.20668
2164.10133	0.20666
2160.24375	0.20703
2156.38617	0.20621
2152.52859	0.20490
2148.67102	0.20488
2144.81344	0.20601
2140.95586	0.20681
2137.09828	0.20633
2133.24070	0.20640
2129.38312	0.20679
2125.52555	0.20529
2121.66797	0.20428
2117.81039	0.20482
2113.95281	0.20489
2110.09523	0.20509
2106.23766	0.20607
2102.38008	0.20708
2098.52250	0.20695
2094.66492	0.20627
2090.80734	0.20636
2086.94977	0.20572
2083.09219	0.20512
2079.23461	0.20595
2075.37703	0.20643
2071.51945	0.20607
2067.66187	0.20549
2063.80430	0.20505
2059.94672	0.20494
2056.08914	0.20619
2052.23156	0.20844
2048.37398	0.20830
2044.51641	0.20493
2040.65883	0.20187
2036.80125	0.20203
2032.94367	0.20303
2029.08609	0.20231
2025.22852	0.20101
2021.37094	0.20031
2017.51336	0.20080
2013.65578	0.20253
2009.79820	0.20307
2005.94062	0.20108
2002.08305	0.19968
1998.22547	0.19996
1994.36789	0.19870
1990.51031	0.19714
1986.65273	0.19830
1982.79516	0.19958
1978.93758	0.19892
1975.08000	0.19775
1971.22242	0.19690
1967.36484	0.19562
1963.50727	0.19465
1959.64969	0.19456
1955.79211	0.19414
1951.93453	0.19382
1948.07695	0.19381
1944.21937	0.19224
1940.36180	0.19077
1936.50422	0.19150
1932.64664	0.19143
1928.78906	0.18917
1924.93148	0.18855
1921.07391	0.18985
1917.21633	0.18805
1913.35875	0.18655
1909.50117	0.18781
1905.64359	0.18805
1901.78602	0.18819
1897.92844	0.18842
1894.07086	0.18849
1890.21328	0.18973
1886.35570	0.18853
1882.49812	0.18443
1878.64055	0.18241
1874.78297	0.18354
1870.92539	0.18305
1867.06781	0.18050
1863.21023	0.18070
1859.35266	0.18126
1855.49508	0.17995
1851.63750	0.17826
1847.77992	0.17790
1843.92234	0.17839
1840.06477	0.17844
1836.20719	0.17864
1832.34961	0.17821
1828.49203	0.17825
1824.63445	0.17947
1820.77687	0.17779
1816.91930	0.17563
1813.06172	0.17687
1809.20414	0.17823
1805.34656	0.17681
1801.48898	0.17240
1797.63141	0.16801
1793.77383	0.16753
1789.91625	0.16783
1786.05867	0.17002
1782.20109	0.17303
1778.34352	0.17216
1774.48594	0.17186
1770.62836	0.17126
1766.77078	0.16834
1762.91320	0.16798
1759.05562	0.16846
1755.19805	0.16715
1751.34047	0.16540
1747.48289	0.16640
1743.62531	0.16648
1739.76773	0.16545
1735.91016	0.16791
1732.05258	0.16747
1728.19500	0.16392
1724.33742	0.16415
1720.47984	0.16523
1716.62227	0.16434
1712.76469	0.16440
1708.90711	0.16250
1705.04953	0.15593
1701.19195	0.15125
1697.33437	0.15561
1693.47680	0.15947
1689.61922	0.15850
1685.76164	0.15538
1681.90406	0.15489
1678.04648	0.15775
1674.18891	0.16050
1670.33133	0.15882
1666.47375	0.15755
1662.61617	0.15781
1658.75859	0.15631
1654.90102	0.15746
1651.04344	0.15981
1647.18586	0.15494
1643.32828	0.15139
1639.47070	0.15050
1635.61312	0.14940
1631.75555	0.14952
1627.89797	0.15291
1624.04039	0.15626
1620.18281	0.15388
1616.32523	0.15156
1612.46766	0.15186
1608.61008	0.15056
1604.75250	0.14954
1600.89492	0.15012
1597.03734	0.14969
1593.17977	0.14994
1589.32219	0.15025
1585.46461	0.14861
1581.60703	0.14751
1577.74945	0.14734
1573.89187	0.14677
1570.03430	0.14477
1566.17672	0.14409
1562.31914	0.14686
1558.46156	0.14853
1554.60398	0.14448
1550.74641	0.14287
1546.88883	0.14415
1543.03125	0.14822
1539.17367	0.15053
1535.31609	0.14855
1531.45852	0.14696
1527.60094	0.14829
1523.74336	0.15234
1519.88578	0.15088
1516.02820	0.14532
1512.17062	0.14564
1508.31305	0.15100
1504.45547	0.15101
1500.59789	0.14808
1496.74031	0.14762
1492.88273	0.14808
1489.02516	0.14879
1485.16758	0.15036
1481.31000	0.15025
1477.45242	0.15006
1473.59484	0.15216
1469.73727	0.15161
1465.87969	0.14959
1462.02211	0.14882
1458.16453	0.15129
1454.30695	0.15628
1450.44937	0.15639
1446.59180	0.15730
1442.73422	0.16033
1438.87664	0.16078
1435.01906	0.15970
1431.16148	0.16022
1427.30391	0.16236
1423.44633	0.16495
1419.58875	0.16750
1415.73117	0.16950
1411.87359	0.16987
1408.01602	0.17060
1404.15844	0.17183
1400.30086	0.17385
1396.44328	0.17864
1392.58570	0.18116
1388.72812	0.18085
1384.87055	0.18191
1381.01297	0.18395
1377.15539	0.18675
1373.29781	0.19070
1369.44023	0.19316
1365.58266	0.19518
1361.72508	0.19799
1357.86750	0.20074
1354.00992	0.20408
1350.15234	0.20791
1346.29477	0.21184
1342.43719	0.21523
1338.57961	0.21536
1334.72203	0.21582
1330.86445	0.22012
1327.00687	0.22330
1323.14930	0.22675
1319.29172	0.23399
1315.43414	0.23642
1311.57656	0.23444
1307.71898	0.23820
1303.86141	0.24707
1300.00383	0.25375
1296.14625	0.25461
1292.28867	0.25699
1288.43109	0.26449
1284.57352	0.26789
1280.71594	0.26835
1276.85836	0.27369
1273.00078	0.28033
1269.14320	0.28516
1265.28562	0.28895
1261.42805	0.29222
1257.57047	0.29953
1253.71289	0.30654
1249.85531	0.30583
1245.99773	0.30674
1242.14016	0.31441
1238.28258	0.32076
1234.42500	0.32629
1230.56742	0.33432
1226.70984	0.34111
1222.85227	0.34257
1218.99469	0.34143
1215.13711	0.34443
1211.27953	0.34417
1207.42195	0.34505
1203.56437	0.36146
1199.70680	0.37187
1195.84922	0.37229
1191.99164	0.38160
1188.13406	0.39014
1184.27648	0.39578
1180.41891	0.39616
1176.56133	0.39105
1172.70375	0.40005
1168.84617	0.41608
1164.98859	0.42490
1161.13102	0.43444
1157.27344	0.44476
1153.41586	0.44278
1149.55828	0.43516
1145.70070	0.44348
1141.84312	0.45259
1137.98555	0.43992
1134.12797	0.42217
1130.27039	0.43133
1126.41281	0.46874
1122.55523	0.48487
1118.69766	0.46990
1114.84008	0.46421
1110.98250	0.44624
1107.12492	0.40316
1103.26734	0.36558
1099.40977	0.38117
1095.55219	0.47983
1091.69461	0.49283
1087.83703	0.44632
1083.97945	0.48912
1080.12187	0.49339
1076.26430	0.40781
1072.40672	0.38812
1068.54914	0.46920
1064.69156	0.43437
1060.83398	0.34441
1056.97641	0.36014
1053.11883	0.43613
1049.26125	0.60752
1045.40367	0.78018
1041.54609	0.57621
1037.68852	0.49619
1033.83094	0.25269
1029.97336	-0.07797
1026.11578	0.40853
1022.25820	-0.41193
1018.40062	-0.30565
1014.54305	-0.04214
1010.68547	-0.23118
1006.82789	-0.27737
1002.97031	-0.47740
999.11273	-0.57324
995.25516	-0.35371
991.39758	-0.12161
987.54000	0.10493
983.68242	-0.71978
979.82484	-0.71978
975.96727	-0.71978
972.10969	-2.70026
968.25211	-2.70026
964.39453	-2.70026
960.53695	1.63282
956.67937	-0.28587
952.82180	-0.28587
948.96422	-0.28587
945.10664	-0.28587
941.24906	-0.28587
937.39148	1.84200
933.53391	0.66177
929.67633	0.52002
925.81875	0.52002
921.96117	0.52002
918.10359	13.61737
914.24602	1.03700
910.38844	-2.10909
906.53086	-2.10909
902.67328	-2.10909
898.81570	-2.10909
894.95812	-2.10909
891.10055	-1.00865
887.24297	2.53960
883.38539	2.51993
879.52781	-0.01116
875.67023	-0.75673
871.81266	-0.23478
867.95508	0.07879
864.09750	0.55035
860.23992	0.61576
856.38234	0.20853
852.52477	-0.04319
848.66719	-0.11391
844.80961	-0.02390
840.95203	0.21648
837.09445	0.26598
833.23687	0.89553
829.37930	-0.02344
825.52172	0.55674
821.66414	3.99828
817.80656	0.36611
813.94898	-0.06012
810.09141	-0.16100
806.23383	0.29088
802.37625	0.29088
798.51867	2.60138
794.66109	0.28188
790.80352	0.29017
786.94594	0.29017
783.08836	0.29017
779.23078	0.15427
775.37320	0.11781
771.51562	0.11781
767.65805	0.11781
763.80047	1.11319
759.94289	0.52225
756.08531	0.39942
752.22773	0.26098
748.37016	0.19722
744.51258	0.41147
740.65500	0.53300
736.79742	-0.25268
732.93984	-0.06201
729.08227	-0.06201
725.22469	1.52608
721.36711	0.26350
717.50953	0.11864
713.65195	0.03260
709.79437	-0.10549
705.93680	-0.11224
702.07922	0.67534
698.22164	0.14936
694.36406	0.16979
690.50648	0.32482
686.64891	1.06902
682.79133	2.61238
678.93375	4.31409
675.07617	1.70561
671.21859	0.45033
667.36102	-0.00420
663.50344	-0.31550
659.64586	1.39202
655.78828	1.39202
651.93070	1.39202
648.07312	1.39202
644.21555	-1.42251
640.35797	0.15262
636.50039	0.36711
632.64281	-0.56412
628.78523	-1.55541
624.92766	-1.55541
621.07008	-1.55541
617.21250	1.61360
613.35492	0.61071
609.49734	1.15558
605.63977	-0.12177
601.78219	-0.49165
597.92461	1.33562
594.06703	-0.78799
590.20945	-0.78799
586.35187	-0.78799
582.49430	0.08710
578.63672	0.35832
574.77914	0.35832
570.92156	0.35832
567.06398	4.08676
563.20641	-6.10212
559.34883	-6.10212
555.49125	0.35958
551.63367	0.69976
547.77609	0.69976
543.91852	0.69976
540.06094	0.72058
536.20336	0.69775
532.34578	0.84353
528.48820	0.18534
524.63062	0.29828
520.77305	1.91323
516.91547	3.42552
513.05789	3.22597
509.20031	3.22597
505.34273	3.22597
501.48516	1.15541
497.62758	0.35102
493.77000	0.57755
489.91242	0.57755
486.05484	0.57755
482.19727	1.56458
478.33969	0.66998
474.48211	0.66998
470.62453	0.66998
466.76695	4.03781
462.90937	4.03781
459.05180	4.03781
455.19422	1.95508
451.33664	0.26578
447.47906	0.22340
443.62148	0.42984
439.76391	0.42984
435.90633	0.42984
432.04875	0.42984
428.19117	-6.65079
424.33359	-0.44325
420.47602	0.63131
416.61844	0.38458
412.76086	0.34130
408.90328	0.61661
405.04570	0.58802
401.18812	-4.19632
397.33055	-4.19632
393.47297	-4.19632
389.61539	-1.71768
385.75781	-0.40048
381.90023	0.01446
378.04266	0.14893
374.18508	0.14893
370.32750	0.77912
366.46992	-0.10306
362.61234	-1.99176
358.75477	-0.60176
354.89719	10.62827
351.03961	10.62827
347.18203	10.62827
343.32445	0.63691
339.46687	1.58121
335.60930	0.95309
331.75172	0.72549
327.89414	0.52707
324.03656	2.51882
320.17898	2.51882
316.32141	2.51882
312.46383	0.21245
308.60625	-0.58949
304.74867	-0.27710
300.89109	0.07217
