14998.26375	0.08692
14994.40617	0.05720
14990.54859	-0.12268
14986.69102	0.05200
14982.83344	0.41157
14978.97586	0.19072
14975.11828	-0.12691
14971.26070	-0.10610
14967.40312	0.02273
14963.54555	0.03716
14959.68797	0.06391
14955.83039	0.06318
14951.97281	0.09187
14948.11523	0.06460
14944.25766	-0.07474
14940.40008	-0.03931
14936.54250	0.12760
14932.68492	0.14361
14928.82734	0.16846
14924.96977	0.21785
14921.11219	0.15469
14917.25461	0.09212
14913.39703	0.04476
14909.53945	0.04841
14905.68187	0.11002
14901.82430	0.18719
14897.96672	0.21568
14894.10914	0.07111
14890.25156	-0.03022
14886.39398	-0.03318
14882.53641	-0.08329
14878.67883	-0.04103
14874.82125	0.11544
14870.96367	0.17831
14867.10609	-0.05829
14863.24852	-0.15387
14859.39094	-0.05988
14855.53336	0.13938
14851.67578	-0.02398
14847.81820	-0.19939
14843.96062	0.19648
14840.10305	0.12032
14836.24547	0.01382
14832.38789	0.09921
14828.53031	0.12664
14824.67273	0.06526
14820.81516	0.14687
14816.95758	0.23363
14813.10000	0.22916
14809.24242	0.11636
14805.38484	0.00717
14801.52727	-0.02917
14797.66969	-0.04828
14793.81211	-0.04721
14789.95453	0.04927
14786.09695	0.10886
14782.23937	0.07129
14778.38180	0.12527
14774.52422	0.11239
14770.66664	0.06502
14766.80906	0.06142
14762.95148	0.02099
14759.09391	0.10362
14755.23633	0.20827
14751.37875	0.23134
14747.52117	0.17996
14743.66359	0.00605
14739.80602	0.01681
14735.94844	0.12811
14732.09086	0.12107
14728.23328	0.12065
14724.37570	0.11215
14720.51812	0.00659
14716.66055	-0.01276
14712.80297	0.03480
14708.94539	0.02952
14705.08781	0.05302
14701.23023	0.09740
14697.37266	0.03842
14693.51508	-0.01476
14689.65750	-0.01026
14685.79992	0.06702
14681.94234	0.17423
14678.08477	0.14518
14674.22719	0.06123
14670.36961	0.10255
14666.51203	0.17595
14662.65445	0.20528
14658.79687	0.19833
14654.93930	0.13573
14651.08172	0.09080
14647.22414	0.09235
14643.36656	0.09382
14639.50898	0.08744
14635.65141	0.07760
14631.79383	0.10604
14627.93625	0.10038
14624.07867	0.08960
14620.22109	0.15127
14616.36352	0.15100
14612.50594	0.09398
14608.64836	0.01708
14604.79078	-0.03710
14600.93320	0.10431
14597.07562	0.28820
14593.21805	0.20135
14589.36047	0.08708
14585.50289	0.05650
14581.64531	0.04880
14577.78773	0.04259
14573.93016	0.10292
14570.07258	0.13290
14566.21500	0.05251
14562.35742	0.01588
14558.49984	-0.00248
14554.64227	-0.02790
14550.78469	0.01986
14546.92711	0.09433
14543.06953	0.03940
14539.21195	0.04032
14535.35437	0.07032
14531.49680	-0.03082
14527.63922	-0.03446
14523.78164	0.04724
14519.92406	0.03068
14516.06648	0.00672
14512.20891	0.03310
14508.35133	0.06113
14504.49375	0.05059
14500.63617	0.07808
14496.77859	0.17165
14492.92102	0.14066
14489.06344	0.11076
14485.20586	0.12157
14481.34828	0.01487
14477.49070	-0.00157
14473.63312	-0.03511
14469.77555	-0.03097
14465.91797	0.07614
14462.06039	0.15291
14458.20281	0.13842
14454.34523	0.10572
14450.48766	0.05928
14446.63008	-0.00177
14442.77250	0.00962
14438.91492	0.03698
14435.05734	0.04390
14431.19977	0.03432
14427.34219	-0.02219
14423.48461	-0.11085
14419.62703	-0.12578
14415.76945	-0.08913
14411.91187	-0.04460
14408.05430	-0.01461
14404.19672	-0.00325
14400.33914	-0.06346
14396.48156	0.04030
14392.62398	0.13935
14388.76641	0.06692
14384.90883	-0.01223
14381.05125	0.01232
14377.19367	0.03781
14373.33609	0.06591
14369.47852	0.13566
14365.62094	0.17255
14361.76336	0.14903
14357.90578	0.08210
14354.04820	0.07488
14350.19062	0.16396
14346.33305	0.11562
14342.47547	0.03842
14338.61789	0.10292
14334.76031	0.06902
14330.90273	0.02277
14327.04516	0.11023
14323.18758	0.13470
14319.33000	0.10451
14315.47242	0.05708
14311.61484	-0.02336
14307.75727	0.00463
14303.89969	0.06795
14300.04211	0.06580
14296.18453	0.07318
14292.32695	0.07988
14288.46937	0.10203
14284.61180	0.12359
14280.75422	0.03640
14276.89664	-0.01585
14273.03906	0.06715
14269.18148	0.06357
14265.32391	0.03371
14261.46633	0.07905
14257.60875	0.05216
14253.75117	-0.06030
14249.89359	-0.06870
14246.03602	0.05688
14242.17844	0.10151
14238.32086	0.07120
14234.46328	0.03758
14230.60570	0.00177
14226.74812	0.04435
14222.89055	0.08712
14219.03297	0.08843
14215.17539	0.05423
14211.31781	-0.00716
14207.46023	-0.00910
14203.60266	0.04075
14199.74508	0.07034
14195.88750	0.09555
14192.02992	0.04031
14188.17234	-0.01966
14184.31477	-0.01667
14180.45719	-0.03148
14176.59961	0.01123
14172.74203	0.12714
14168.88445	0.12156
14165.02687	0.06821
14161.16930	0.10890
14157.31172	0.11109
14153.45414	0.06471
14149.59656	0.08079
14145.73898	0.07619
14141.88141	0.03558
14138.02383	-0.01218
14134.16625	-0.02811
14130.30867	-0.01365
14126.45109	0.00393
14122.59352	0.00524
14118.73594	-0.01233
14114.87836	0.00948
14111.02078	0.07940
14107.16320	0.09322
14103.30562	0.03991
14099.44805	-0.00245
14095.59047	-0.01083
14091.73289	0.02885
14087.87531	0.07603
14084.01773	0.06423
14080.16016	-0.02561
14076.30258	-0.06508
14072.44500	-0.01927
14068.58742	-0.03763
14064.72984	-0.06768
14060.87227	0.11733
14057.01469	0.10063
14053.15711	0.01199
14049.29953	0.01754
14045.44195	0.03434
14041.58437	-0.01025
14037.72680	-0.03453
14033.86922	0.03784
14030.01164	0.10660
14026.15406	0.09747
14022.29648	0.07845
14018.43891	0.05323
14014.58133	0.04591
14010.72375	0.07561
14006.86617	0.07345
14003.00859	0.07132
13999.15102	0.08290
13995.29344	0.05749
13991.43586	0.03688
13987.57828	0.00603
13983.72070	-0.02084
13979.86312	0.03951
13976.00555	0.10580
13972.14797	0.09604
13968.29039	0.07967
13964.43281	0.05810
13960.57523	0.03053
13956.71766	0.06085
13952.86008	0.05725
13949.00250	-0.00234
13945.14492	0.00315
13941.28734	0.02323
13937.42977	0.05052
13933.57219	0.06750
13929.71461	0.04344
13925.85703	0.04516
13921.99945	0.01973
13918.14187	-0.02113
13914.28430	0.02732
13910.42672	0.07446
13906.56914	0.04577
13902.71156	0.02526
13898.85398	0.03782
13894.99641	0.03020
13891.13883	0.05341
13887.28125	0.11028
13883.42367	0.11119
13879.56609	0.03509
13875.70852	-0.00200
13871.85094	0.09105
13867.99336	0.12543
13864.13578	0.00433
13860.27820	-0.08499
13856.42062	-0.06216
13852.56305	0.03465
13848.70547	0.08543
13844.84789	0.04152
13840.99031	0.04571
13837.13273	0.10059
13833.27516	0.11508
13829.41758	0.06572
13825.56000	0.03835
13821.70242	0.06179
13817.84484	0.07768
13813.98727	0.04349
13810.12969	-0.02897
13806.27211	-0.02165
13802.41453	0.04740
13798.55695	0.05368
13794.69937	0.04104
13790.84180	0.02994
13786.98422	-0.02563
13783.12664	-0.04441
13779.26906	-0.01718
13775.41148	-0.00135
13771.55391	0.02791
13767.69633	0.05813
13763.83875	0.06085
13759.98117	0.06112
13756.12359	0.05614
13752.26602	0.04661
13748.40844	0.05554
13744.55086	0.07590
13740.69328	0.06329
13736.83570	0.02356
13732.97812	0.04816
13729.12055	0.08874
13725.26297	0.04664
13721.40539	-0.01799
13717.54781	-0.07336
13713.69023	-0.02569
13709.83266	0.06445
13705.97508	0.06152
13702.11750	0.06123
13698.25992	0.07730
13694.40234	0.07274
13690.54477	0.09173
13686.68719	0.10557
13682.82961	0.06540
13678.97203	-0.01088
13675.11445	-0.04847
13671.25687	-0.04657
13667.39930	-0.01373
13663.54172	0.04132
13659.68414	0.05254
13655.82656	0.04673
13651.96898	0.05832
13648.11141	0.02666
13644.25383	0.00081
13640.39625	0.06067
13636.53867	0.11950
13632.68109	0.09669
13628.82352	0.04235
13624.96594	-0.00427
13621.10836	-0.00504
13617.25078	0.01586
13613.39320	0.00564
13609.53562	0.02825
13605.67805	0.04123
13601.82047	0.01533
13597.96289	0.03437
13594.10531	0.06088
13590.24773	0.05113
13586.39016	0.01282
13582.53258	-0.02458
13578.67500	0.00499
13574.81742	0.02635
13570.95984	0.00255
13567.10227	-0.02614
13563.24469	-0.02675
13559.38711	-0.01391
13555.52953	-0.01251
13551.67195	-0.01872
13547.81437	-0.00877
13543.95680	0.02879
13540.09922	0.01155
13536.24164	0.01773
13532.38406	0.03559
13528.52648	-0.01319
13524.66891	-0.01446
13520.81133	0.00917
13516.95375	0.00421
13513.09617	0.01244
13509.23859	0.03081
13505.38102	0.02370
13501.52344	-0.00066
13497.66586	-0.00369
13493.80828	0.00766
13489.95070	-0.00008
13486.09312	-0.02005
13482.23555	0.00007
13478.37797	0.02986
13474.52039	0.00965
13470.66281	-0.00923
13466.80523	0.03327
13462.94766	0.06181
13459.09008	0.05225
13455.23250	0.04116
13451.37492	0.01594
13447.51734	-0.00187
13443.65977	0.02619
13439.80219	0.04851
13435.94461	0.02540
13432.08703	0.03092
13428.22945	0.05176
13424.37187	0.04013
13420.51430	0.00546
13416.65672	-0.00358
13412.79914	0.03206
13408.94156	0.02642
13405.08398	-0.00284
13401.22641	0.00382
13397.36883	0.02756
13393.51125	0.02030
13389.65367	0.02135
13385.79609	0.03950
13381.93852	0.01783
13378.08094	0.01808
13374.22336	0.05320
13370.36578	0.03427
13366.50820	0.02145
13362.65062	0.04025
13358.79305	0.00750
13354.93547	-0.01904
13351.07789	0.01887
13347.22031	0.04257
13343.36273	0.05436
13339.50516	0.06268
13335.64758	0.00764
13331.79000	-0.05360
13327.93242	-0.01994
13324.07484	0.02581
13320.21727	0.01477
13316.35969	0.04209
13312.50211	0.07504
13308.64453	0.04631
13304.78695	0.03212
13300.92937	0.05526
13297.07180	0.04131
13293.21422	0.03668
13289.35664	0.07820
13285.49906	0.08205
13281.64148	0.07010
13277.78391	0.07470
13273.92633	0.05410
13270.06875	0.02831
13266.21117	0.03080
13262.35359	0.01544
13258.49602	-0.02999
13254.63844	-0.02935
13250.78086	0.00320
13246.92328	0.00101
13243.06570	0.00997
13239.20812	0.04346
13235.35055	0.05770
13231.49297	0.06353
13227.63539	0.05271
13223.77781	0.03605
13219.92023	0.05246
13216.06266	0.06551
13212.20508	0.04574
13208.34750	0.02327
13204.48992	-0.01008
13200.63234	-0.02686
13196.77477	-0.00029
13192.91719	0.02347
13189.05961	0.02145
13185.20203	-0.00919
13181.34445	-0.02793
13177.48687	0.00914
13173.62930	0.01088
13169.77172	0.00213
13165.91414	-0.00384
13162.05656	-0.00358
13158.19898	-0.02145
13154.34141	-0.04673
13150.48383	-0.04658
13146.62625	-0.04299
13142.76867	-0.02477
13138.91109	-0.01699
13135.05352	-0.03303
13131.19594	-0.02656
13127.33836	-0.00921
13123.48078	0.01132
13119.62320	0.02028
13115.76562	0.01226
13111.90805	-0.00612
13108.05047	0.01095
13104.19289	0.03946
13100.33531	0.03844
13096.47773	0.00368
13092.62016	-0.01452
13088.76258	0.00601
13084.90500	0.02414
13081.04742	0.02203
13077.18984	0.02374
13073.33227	0.03221
13069.47469	0.03484
13065.61711	0.01372
13061.75953	-0.01410
13057.90195	-0.01622
13054.04437	-0.02034
13050.18680	0.01663
13046.32922	-0.02966
13042.47164	0.00630
13038.61406	0.07162
13034.75648	0.05057
13030.89891	0.03707
13027.04133	0.03379
13023.18375	0.03042
13019.32617	0.03129
13015.46859	0.03888
13011.61102	0.04803
13007.75344	0.05462
13003.89586	0.07532
13000.03828	0.06295
12996.18070	0.02221
12992.32312	-0.01507
12988.46555	-0.00245
12984.60797	0.01409
12980.75039	-0.00704
12976.89281	-0.01673
12973.03523	0.00517
12969.17766	0.04369
12965.32008	0.03389
12961.46250	0.00449
12957.60492	0.00684
12953.74734	0.02008
12949.88977	0.03096
12946.03219	0.02048
12942.17461	0.00425
12938.31703	0.01427
12934.45945	0.01278
12930.60187	0.01564
12926.74430	0.05490
12922.88672	0.05478
12919.02914	0.03859
12915.17156	0.05880
12911.31398	0.03791
12907.45641	0.01046
12903.59883	0.02317
12899.74125	0.02214
12895.88367	0.03136
12892.02609	0.05216
12888.16852	0.02914
12884.31094	-0.00924
12880.45336	-0.03202
12876.59578	-0.02277
12872.73820	0.00846
12868.88062	-0.01519
12865.02305	-0.05572
12861.16547	-0.02989
12857.30789	-0.00414
12853.45031	-0.00431
12849.59273	0.00840
12845.73516	-0.01636
12841.87758	0.00001
12838.02000	0.00631
12834.16242	-0.00976
12830.30484	0.00268
12826.44727	0.02719
12822.58969	0.02654
12818.73211	0.01337
12814.87453	0.02168
12811.01695	0.02785
12807.15937	0.02892
12803.30180	0.02780
12799.44422	-0.00249
12795.58664	-0.02736
12791.72906	-0.02249
12787.87148	-0.00690
12784.01391	0.01203
12780.15633	0.01984
12776.29875	0.01503
12772.44117	0.01310
12768.58359	0.01674
12764.72602	0.02694
12760.86844	0.03560
12757.01086	0.02589
12753.15328	0.00088
12749.29570	-0.01285
12745.43812	0.00803
12741.58055	0.03112
12737.72297	0.02042
12733.86539	0.00538
12730.00781	0.00330
12726.15023	-0.01137
12722.29266	-0.00822
12718.43508	0.02723
12714.57750	0.02989
12710.71992	0.00832
12706.86234	0.01891
12703.00477	0.02243
12699.14719	-0.00373
12695.28961	-0.00409
12691.43203	0.01626
12687.57445	0.01958
12683.71687	0.02487
12679.85930	0.02997
12676.00172	-0.00508
12672.14414	-0.04614
12668.28656	-0.03056
12664.42898	0.02170
12660.57141	0.00260
12656.71383	0.01915
12652.85625	-0.00545
12648.99867	-0.01725
12645.14109	0.03106
12641.28352	-0.00300
12637.42594	-0.00452
12633.56836	0.02832
12629.71078	0.02355
12625.85320	0.00806
12621.99562	0.00605
12618.13805	-0.00052
12614.28047	0.00716
12610.42289	0.01637
12606.56531	0.02621
12602.70773	0.02219
12598.85016	0.00375
12594.99258	-0.00556
12591.13500	-0.02787
12587.27742	-0.03697
12583.41984	-0.02048
12579.56227	0.00615
12575.70469	0.01213
12571.84711	-0.00459
12567.98953	0.00478
12564.13195	0.01730
12560.27437	0.00687
12556.41680	0.00371
12552.55922	0.00444
12548.70164	-0.00276
12544.84406	0.00447
12540.98648	-0.00335
12537.12891	-0.00682
12533.27133	0.01240
12529.41375	0.02666
12525.55617	0.01874
12521.69859	-0.00668
12517.84102	-0.01102
12513.98344	-0.00447
12510.12586	0.00562
12506.26828	0.02029
12502.41070	0.02167
12498.55312	0.01211
12494.69555	-0.00234
12490.83797	0.01601
12486.98039	0.03651
12483.12281	0.01820
12479.26523	0.00536
12475.40766	-0.00580
12471.55008	-0.00860
12467.69250	0.00419
12463.83492	0.01986
12459.97734	0.03132
12456.11977	0.04275
12452.26219	0.05004
12448.40461	0.02041
12444.54703	-0.01574
12440.68945	-0.02194
12436.83187	-0.01666
12432.97430	0.00499
12429.11672	0.02812
12425.25914	0.02393
12421.40156	0.01531
12417.54398	0.00876
12413.68641	-0.00715
12409.82883	-0.01053
12405.97125	-0.00180
12402.11367	-0.00684
12398.25609	0.00212
12394.39852	0.01786
12390.54094	-0.00411
12386.68336	-0.00615
12382.82578	0.01497
12378.96820	-0.00121
12375.11062	0.00310
12371.25305	0.02124
12367.39547	0.01384
12363.53789	0.00632
12359.68031	0.01143
12355.82273	0.02416
12351.96516	0.03242
12348.10758	0.02528
12344.25000	-0.00722
12340.39242	-0.02811
12336.53484	0.01269
12332.67727	0.01479
12328.81969	0.01303
12324.96211	0.03878
12321.10453	0.01513
12317.24695	-0.01528
12313.38937	-0.00987
12309.53180	0.00285
12305.67422	0.01318
12301.81664	0.01488
12297.95906	0.01732
12294.10148	0.03389
12290.24391	0.03328
12286.38633	-0.00053
12282.52875	-0.01697
12278.67117	0.01793
12274.81359	0.03170
12270.95602	-0.00416
12267.09844	-0.00698
12263.24086	0.02416
12259.38328	0.02514
12255.52570	0.00956
12251.66812	0.01563
12247.81055	0.02296
12243.95297	0.02313
12240.09539	0.03032
12236.23781	0.02654
12232.38023	0.01014
12228.52266	0.00540
12224.66508	0.00823
12220.80750	0.00661
12216.94992	0.00729
12213.09234	0.00131
12209.23477	-0.01011
12205.37719	-0.01032
12201.51961	0.00467
12197.66203	0.00164
12193.80445	-0.01289
12189.94687	-0.01052
12186.08930	-0.02256
12182.23172	0.00256
12178.37414	0.02595
12174.51656	0.00616
12170.65898	-0.00427
12166.80141	-0.02493
12162.94383	-0.00512
12159.08625	0.01919
12155.22867	-0.00377
12151.37109	-0.00204
12147.51352	0.02312
12143.65594	0.02386
12139.79836	0.01580
12135.94078	0.00327
12132.08320	-0.00098
12128.22562	0.01896
12124.36805	0.04074
12120.51047	0.03031
12116.65289	-0.00520
12112.79531	-0.01199
12108.93773	0.00960
12105.08016	0.02224
12101.22258	0.01785
12097.36500	0.00470
12093.50742	0.00338
12089.64984	0.01543
12085.79227	0.02437
12081.93469	0.02865
12078.07711	0.02315
12074.21953	0.01059
12070.36195	-0.01154
12066.50437	-0.02041
12062.64680	0.01692
12058.78922	0.03779
12054.93164	0.00718
12051.07406	-0.00191
12047.21648	0.02103
12043.35891	0.01971
12039.50133	0.00626
12035.64375	0.00729
12031.78617	0.00729
12027.92859	0.00682
12024.07102	0.00651
12020.21344	0.00542
12016.35586	-0.00694
12012.49828	-0.01127
12008.64070	0.00120
12004.78312	0.00588
12000.92555	0.01064
11997.06797	0.02254
11993.21039	0.02483
11989.35281	0.01292
11985.49523	-0.01028
11981.63766	-0.01233
11977.78008	0.00981
11973.92250	0.01729
11970.06492	0.00112
11966.20734	-0.01059
11962.34977	-0.00515
11958.49219	0.00747
11954.63461	0.01851
11950.77703	0.02852
11946.91945	0.02540
11943.06187	0.01516
11939.20430	0.01844
11935.34672	0.02332
11931.48914	0.01539
11927.63156	0.01705
11923.77398	0.02148
11919.91641	0.00680
11916.05883	0.00541
11912.20125	0.00806
11908.34367	-0.01964
11904.48609	-0.00591
11900.62852	0.02476
11896.77094	0.01188
11892.91336	0.01129
11889.05578	0.00947
11885.19820	0.00906
11881.34062	0.01861
11877.48305	0.01527
11873.62547	0.01604
11869.76789	0.01413
11865.91031	-0.00063
11862.05273	0.00500
11858.19516	0.01814
11854.33758	0.01532
11850.48000	0.00593
11846.62242	0.00385
11842.76484	0.01135
11838.90727	0.01029
11835.04969	0.00045
11831.19211	-0.00232
11827.33453	-0.00902
11823.47695	-0.02680
11819.61937	-0.03882
11815.76180	-0.03849
11811.90422	-0.02901
11808.04664	-0.01702
11804.18906	-0.02213
11800.33148	-0.02639
11796.47391	-0.00964
11792.61633	-0.01060
11788.75875	-0.01983
11784.90117	-0.00869
11781.04359	0.00997
11777.18602	0.02239
11773.32844	0.02321
11769.47086	-0.00653
11765.61328	-0.01847
11761.75570	0.00258
11757.89812	0.01332
11754.04055	0.01562
11750.18297	0.02830
11746.32539	0.02877
11742.46781	0.01582
11738.61023	0.01772
11734.75266	0.02069
11730.89508	0.00128
11727.03750	-0.00243
11723.17992	0.01466
11719.32234	0.01723
11715.46477	0.01850
11711.60719	0.00753
11707.74961	-0.00450
11703.89203	0.00338
11700.03445	0.01478
11696.17687	0.02134
11692.31930	0.02771
11688.46172	0.02171
11684.60414	0.00463
11680.74656	0.00662
11676.88898	0.00850
11673.03141	0.00174
11669.17383	0.00033
11665.31625	0.00190
11661.45867	-0.00297
11657.60109	0.00785
11653.74352	0.01394
11649.88594	0.00296
11646.02836	0.01431
11642.17078	0.03112
11638.31320	0.02351
11634.45562	0.00909
11630.59805	0.00444
11626.74047	0.00842
11622.88289	0.00942
11619.02531	0.01305
11615.16773	0.00860
11611.31016	-0.00366
11607.45258	0.00126
11603.59500	0.02182
11599.73742	0.02757
11595.87984	0.00847
11592.02227	-0.01157
11588.16469	0.00311
11584.30711	0.02870
11580.44953	0.02864
11576.59195	0.02678
11572.73437	0.02769
11568.87680	0.01351
11565.01922	-0.00158
11561.16164	0.00208
11557.30406	0.01552
11553.44648	0.00659
11549.58891	0.00290
11545.73133	0.02626
11541.87375	0.02740
11538.01617	0.00604
11534.15859	-0.00405
11530.30102	-0.00046
11526.44344	0.00901
11522.58586	0.01000
11518.72828	0.00283
11514.87070	0.00049
11511.01312	-0.00352
11507.15555	-0.00894
11503.29797	0.00409
11499.44039	0.01220
11495.58281	0.01260
11491.72523	0.01350
11487.86766	0.00162
11484.01008	0.00020
11480.15250	0.01007
11476.29492	0.01232
11472.43734	0.01057
11468.57977	0.00754
11464.72219	0.01084
11460.86461	0.01825
11457.00703	0.02206
11453.14945	0.01682
11449.29187	0.00849
11445.43430	0.01602
11441.57672	0.01676
11437.71914	0.00701
11433.86156	0.01430
11430.00398	0.00891
11426.14641	-0.00238
11422.28883	0.01106
11418.43125	0.03054
11414.57367	0.03610
11410.71609	0.01922
11406.85852	0.00671
11403.00094	0.01825
11399.14336	0.02682
11395.28578	0.02614
11391.42820	0.01425
11387.57062	-0.00066
11383.71305	-0.00347
11379.85547	0.00345
11375.99789	0.02672
11372.14031	0.03328
11368.28273	0.00616
11364.42516	-0.00240
11360.56758	0.01290
11356.71000	0.01877
11352.85242	0.02259
11348.99484	0.02715
11345.13727	0.02266
11341.27969	0.01787
11337.42211	0.01981
11333.56453	0.02208
11329.70695	0.01237
11325.84937	-0.00567
11321.99180	-0.00052
11318.13422	0.01750
11314.27664	0.00899
11310.41906	-0.00177
11306.56148	0.00070
11302.70391	0.00335
11298.84633	0.01303
11294.98875	0.01646
11291.13117	0.00440
11287.27359	0.00317
11283.41602	0.01602
11279.55844	0.01587
11275.70086	0.00394
11271.84328	0.00319
11267.98570	0.01434
11264.12812	0.02007
11260.27055	0.01273
11256.41297	0.00094
11252.55539	-0.00378
11248.69781	0.00694
11244.84023	0.02160
11240.98266	0.01753
11237.12508	0.00684
11233.26750	0.00553
11229.40992	0.00383
11225.55234	0.00300
11221.69477	0.01109
11217.83719	0.01821
11213.97961	0.00977
11210.12203	0.00382
11206.26445	0.01910
11202.40687	0.02920
11198.54930	0.02140
11194.69172	0.01102
11190.83414	0.00391
11186.97656	0.00479
11183.11898	0.00771
11179.26141	0.01044
11175.40383	0.01368
11171.54625	0.00941
11167.68867	-0.00220
11163.83109	-0.00245
11159.97352	0.00771
11156.11594	0.01873
11152.25836	0.01940
11148.40078	0.01677
11144.54320	0.02472
11140.68562	0.02408
11136.82805	0.01918
11132.97047	0.02206
11129.11289	0.02762
11125.25531	0.04254
11121.39773	0.04777
11117.54016	0.03845
11113.68258	0.04341
11109.82500	0.05952
11105.96742	0.06853
11102.10984	0.06513
11098.25227	0.05689
11094.39469	0.05691
11090.53711	0.06094
11086.67953	0.06625
11082.82195	0.07776
11078.96437	0.08782
11075.10680	0.08416
11071.24922	0.07607
11067.39164	0.08151
11063.53406	0.09317
11059.67648	0.09501
11055.81891	0.09093
11051.96133	0.09463
11048.10375	0.11277
11044.24617	0.13111
11040.38859	0.13087
11036.53102	0.12432
11032.67344	0.12887
11028.81586	0.13855
11024.95828	0.14891
11021.10070	0.15318
11017.24312	0.14854
11013.38555	0.14762
11009.52797	0.15364
11005.67039	0.16557
11001.81281	0.17224
10997.95523	0.17301
10994.09766	0.18007
10990.24008	0.17834
10986.38250	0.17539
10982.52492	0.18611
10978.66734	0.19553
10974.80977	0.20175
10970.95219	0.20154
10967.09461	0.19610
10963.23703	0.20269
10959.37945	0.21468
10955.52187	0.21322
10951.66430	0.20894
10947.80672	0.22029
10943.94914	0.23074
10940.09156	0.23286
10936.23398	0.24075
10932.37641	0.24541
10928.51883	0.23511
10924.66125	0.21950
10920.80367	0.21986
10916.94609	0.23833
10913.08852	0.24687
10909.23094	0.24047
10905.37336	0.24390
10901.51578	0.25167
10897.65820	0.24884
10893.80062	0.25117
10889.94305	0.25992
10886.08547	0.26027
10882.22789	0.25722
10878.37031	0.25549
10874.51273	0.25686
10870.65516	0.25987
10866.79758	0.26015
10862.94000	0.26400
10859.08242	0.26964
10855.22484	0.27402
10851.36727	0.27670
10847.50969	0.27111
10843.65211	0.26914
10839.79453	0.27500
10835.93695	0.27325
10832.07937	0.27216
10828.22180	0.28165
10824.36422	0.29194
10820.50664	0.29672
10816.64906	0.29037
10812.79148	0.27858
10808.93391	0.27965
10805.07633	0.29185
10801.21875	0.30002
10797.36117	0.29874
10793.50359	0.29112
10789.64602	0.29067
10785.78844	0.29822
10781.93086	0.29878
10778.07328	0.28992
10774.21570	0.28620
10770.35812	0.29446
10766.50055	0.29843
10762.64297	0.29221
10758.78539	0.29073
10754.92781	0.29871
10751.07023	0.31061
10747.21266	0.31723
10743.35508	0.31335
10739.49750	0.30628
10735.63992	0.30618
10731.78234	0.30698
10727.92477	0.29994
10724.06719	0.29831
10720.20961	0.30580
10716.35203	0.30896
10712.49445	0.31072
10708.63687	0.31853
10704.77930	0.32319
10700.92172	0.31964
10697.06414	0.32034
10693.20656	0.32394
10689.34898	0.32100
10685.49141	0.31552
10681.63383	0.31225
10677.77625	0.31478
10673.91867	0.32139
10670.06109	0.32340
10666.20352	0.31492
10662.34594	0.30849
10658.48836	0.31582
10654.63078	0.32072
10650.77320	0.31855
10646.91562	0.31971
10643.05805	0.32182
10639.20047	0.31931
10635.34289	0.31558
10631.48531	0.32310
10627.62773	0.33109
10623.77016	0.32420
10619.91258	0.31873
10616.05500	0.31810
10612.19742	0.31587
10608.33984	0.31960
10604.48227	0.32551
10600.62469	0.32663
10596.76711	0.32597
10592.90953	0.32398
10589.05195	0.32379
10585.19437	0.32626
10581.33680	0.32637
10577.47922	0.32689
10573.62164	0.32892
10569.76406	0.33357
10565.90648	0.34317
10562.04891	0.34501
10558.19133	0.33356
10554.33375	0.32427
10550.47617	0.32534
10546.61859	0.32862
10542.76102	0.32953
10538.90344	0.33263
10535.04586	0.33608
10531.18828	0.33010
10527.33070	0.32399
10523.47312	0.33245
10519.61555	0.33868
10515.75797	0.33307
10511.90039	0.33264
10508.04281	0.33784
10504.18523	0.33691
10500.32766	0.33113
10496.47008	0.32872
10492.61250	0.33209
10488.75492	0.33698
10484.89734	0.33762
10481.03977	0.33627
10477.18219	0.33794
10473.32461	0.34006
10469.46703	0.34339
10465.60945	0.34404
10461.75187	0.33997
10457.89430	0.33960
10454.03672	0.33868
10450.17914	0.33930
10446.32156	0.34260
10442.46398	0.33594
10438.60641	0.33120
10434.74883	0.34039
10430.89125	0.34755
10427.03367	0.34563
10423.17609	0.34646
10419.31852	0.34582
10415.46094	0.33749
10411.60336	0.34042
10407.74578	0.34975
10403.88820	0.34876
10400.03062	0.34778
10396.17305	0.34426
10392.31547	0.33923
10388.45789	0.34301
10384.60031	0.34743
10380.74273	0.35263
10376.88516	0.35351
10373.02758	0.34123
10369.17000	0.33503
10365.31242	0.34449
10361.45484	0.35414
10357.59727	0.35348
10353.73969	0.34631
10349.88211	0.34371
10346.02453	0.35016
10342.16695	0.35902
10338.30937	0.35903
10334.45180	0.34895
10330.59422	0.34264
10326.73664	0.34541
10322.87906	0.35046
10319.02148	0.35519
10315.16391	0.35188
10311.30633	0.34344
10307.44875	0.34656
10303.59117	0.35222
10299.73359	0.35291
10295.87602	0.35700
10292.01844	0.35674
10288.16086	0.35267
10284.30328	0.35300
10280.44570	0.35568
10276.58812	0.35850
10272.73055	0.35480
10268.87297	0.34812
10265.01539	0.34908
10261.15781	0.35441
10257.30023	0.35648
10253.44266	0.35205
10249.58508	0.34738
10245.72750	0.35167
10241.86992	0.35817
10238.01234	0.35609
10234.15477	0.35200
10230.29719	0.35265
10226.43961	0.35515
10222.58203	0.35717
10218.72445	0.35585
10214.86687	0.35745
10211.00930	0.36376
10207.15172	0.36465
10203.29414	0.36372
10199.43656	0.36479
10195.57898	0.36094
10191.72141	0.35562
10187.86383	0.35939
10184.00625	0.36661
10180.14867	0.36388
10176.29109	0.35751
10172.43352	0.35482
10168.57594	0.35436
10164.71836	0.35689
10160.86078	0.35764
10157.00320	0.35472
10153.14562	0.35214
10149.28805	0.35117
10145.43047	0.35619
10141.57289	0.36500
10137.71531	0.36319
10133.85773	0.35479
10130.00016	0.35554
10126.14258	0.35679
10122.28500	0.35244
10118.42742	0.35288
10114.56984	0.35573
10110.71227	0.35666
10106.85469	0.35823
10102.99711	0.35886
10099.13953	0.35902
10095.28195	0.35996
10091.42437	0.36023
10087.56680	0.35976
10083.70922	0.35959
10079.85164	0.36320
10075.99406	0.36661
10072.13648	0.36216
10068.27891	0.35744
10064.42133	0.35794
10060.56375	0.36093
10056.70617	0.36652
10052.84859	0.36682
10048.99102	0.36006
10045.13344	0.35974
10041.27586	0.36685
10037.41828	0.37105
10033.56070	0.36802
10029.70312	0.36043
10025.84555	0.35755
10021.98797	0.35999
10018.13039	0.36137
10014.27281	0.36456
10010.41523	0.36618
10006.55766	0.36297
10002.70008	0.36201
9998.84250	0.36477
9994.98492	0.36943
9991.12734	0.36988
9987.26977	0.36546
9983.41219	0.36540
9979.55461	0.36785
9975.69703	0.36800
9971.83945	0.36507
9967.98187	0.36086
9964.12430	0.36380
9960.26672	0.36941
9956.40914	0.36795
9952.55156	0.36841
9948.69398	0.37208
9944.83641	0.36848
9940.97883	0.36221
9937.12125	0.36088
9933.26367	0.36510
9929.40609	0.36876
9925.54852	0.36642
9921.69094	0.36486
9917.83336	0.36465
9913.97578	0.36462
9910.11820	0.36670
9906.26062	0.36571
9902.40305	0.36636
9898.54547	0.37011
9894.68789	0.37034
9890.83031	0.37201
9886.97273	0.37424
9883.11516	0.37102
9879.25758	0.36620
9875.40000	0.36323
9871.54242	0.36089
9867.68484	0.35975
9863.82727	0.36212
9859.96969	0.36601
9856.11211	0.36930
9852.25453	0.37064
9848.39695	0.36892
9844.53937	0.36744
9840.68180	0.36476
9836.82422	0.36221
9832.96664	0.36674
9829.10906	0.37243
9825.25148	0.37242
9821.39391	0.36862
9817.53633	0.36680
9813.67875	0.37048
9809.82117	0.37015
9805.96359	0.36553
9802.10602	0.36574
9798.24844	0.36483
9794.39086	0.36314
9790.53328	0.36447
9786.67570	0.36405
9782.81812	0.36551
9778.96055	0.36696
9775.10297	0.36664
9771.24539	0.37082
9767.38781	0.37084
9763.53023	0.36660
9759.67266	0.36889
9755.81508	0.37119
9751.95750	0.37144
9748.09992	0.37494
9744.24234	0.37540
9740.38477	0.37146
9736.52719	0.37038
9732.66961	0.36916
9728.81203	0.36638
9724.95445	0.36864
9721.09687	0.36964
9717.23930	0.36759
9713.38172	0.37031
9709.52414	0.37213
9705.66656	0.37155
9701.80898	0.37213
9697.95141	0.36974
9694.09383	0.36614
9690.23625	0.36599
9686.37867	0.36671
9682.52109	0.36720
9678.66352	0.37134
9674.80594	0.37518
9670.94836	0.37453
9667.09078	0.37085
9663.23320	0.36403
9659.37562	0.36207
9655.51805	0.36723
9651.66047	0.36958
9647.80289	0.36943
9643.94531	0.37255
9640.08773	0.37285
9636.23016	0.36726
9632.37258	0.36750
9628.51500	0.37039
9624.65742	0.36762
9620.79984	0.36761
9616.94227	0.36985
9613.08469	0.37167
9609.22711	0.37295
9605.36953	0.36981
9601.51195	0.36798
9597.65437	0.37099
9593.79680	0.37297
9589.93922	0.37076
9586.08164	0.36829
9582.22406	0.36690
9578.36648	0.36676
9574.50891	0.37113
9570.65133	0.37591
9566.79375	0.37674
9562.93617	0.37559
9559.07859	0.37642
9555.22102	0.37866
9551.36344	0.37692
9547.50586	0.37399
9543.64828	0.37487
9539.79070	0.37875
9535.93312	0.38010
9532.07555	0.37588
9528.21797	0.37382
9524.36039	0.37695
9520.50281	0.37855
9516.64523	0.37621
9512.78766	0.37212
9508.93008	0.36677
9505.07250	0.36567
9501.21492	0.37258
9497.35734	0.37760
9493.49977	0.37899
9489.64219	0.38074
9485.78461	0.37875
9481.92703	0.37737
9478.06945	0.37829
9474.21187	0.37665
9470.35430	0.37538
9466.49672	0.37622
9462.63914	0.37685
9458.78156	0.37732
9454.92398	0.37668
9451.06641	0.37200
9447.20883	0.36868
9443.35125	0.37105
9439.49367	0.37351
9435.63609	0.37359
9431.77852	0.37226
9427.92094	0.37471
9424.06336	0.37929
9420.20578	0.37715
9416.34820	0.37475
9412.49062	0.37487
9408.63305	0.37495
9404.77547	0.37757
9400.91789	0.37779
9397.06031	0.37685
9393.20273	0.37713
9389.34516	0.37566
9385.48758	0.37568
9381.63000	0.37563
9377.77242	0.37423
9373.91484	0.37502
9370.05727	0.37536
9366.19969	0.37370
9362.34211	0.37304
9358.48453	0.37426
9354.62695	0.37493
9350.76937	0.37221
9346.91180	0.37016
9343.05422	0.37292
9339.19664	0.37557
9335.33906	0.37734
9331.48148	0.37883
9327.62391	0.37585
9323.76633	0.37181
9319.90875	0.37090
9316.05117	0.37219
9312.19359	0.37529
9308.33602	0.37735
9304.47844	0.37491
9300.62086	0.37196
9296.76328	0.37357
9292.90570	0.37575
9289.04812	0.37582
9285.19055	0.37480
9281.33297	0.37307
9277.47539	0.37422
9273.61781	0.37711
9269.76023	0.37772
9265.90266	0.37666
9262.04508	0.37570
9258.18750	0.37571
9254.32992	0.37668
9250.47234	0.37795
9246.61477	0.37814
9242.75719	0.37872
9238.89961	0.37930
9235.04203	0.37613
9231.18445	0.37295
9227.32687	0.37400
9223.46930	0.37777
9219.61172	0.38117
9215.75414	0.38094
9211.89656	0.37833
9208.03898	0.37638
9204.18141	0.37567
9200.32383	0.37689
9196.46625	0.37892
9192.60867	0.37788
9188.75109	0.37524
9184.89352	0.37515
9181.03594	0.37637
9177.17836	0.37750
9173.32078	0.37578
9169.46320	0.37308
9165.60562	0.37604
9161.74805	0.37950
9157.89047	0.38076
9154.03289	0.38261
9150.17531	0.38010
9146.31773	0.37562
9142.46016	0.37659
9138.60258	0.37877
9134.74500	0.37604
9130.88742	0.37472
9127.02984	0.37881
9123.17227	0.37949
9119.31469	0.37652
9115.45711	0.37745
9111.59953	0.38012
9107.74195	0.37987
9103.88437	0.37779
9100.02680	0.37750
9096.16922	0.37998
9092.31164	0.38214
9088.45406	0.38176
9084.59648	0.37982
9080.73891	0.37753
9076.88133	0.37731
9073.02375	0.38005
9069.16617	0.38085
9065.30859	0.37907
9061.45102	0.38044
9057.59344	0.38251
9053.73586	0.38098
9049.87828	0.38065
9046.02070	0.38186
9042.16312	0.38139
9038.30555	0.38167
9034.44797	0.38260
9030.59039	0.38309
9026.73281	0.38242
9022.87523	0.38045
9019.01766	0.37917
9015.16008	0.37743
9011.30250	0.37771
9007.44492	0.37926
9003.58734	0.37709
8999.72977	0.37746
8995.87219	0.38070
8992.01461	0.37985
8988.15703	0.37815
8984.29945	0.37888
8980.44187	0.38158
8976.58430	0.38452
8972.72672	0.38307
8968.86914	0.37783
8965.01156	0.37641
8961.15398	0.37825
8957.29641	0.37710
8953.43883	0.37728
8949.58125	0.38071
8945.72367	0.38168
8941.86609	0.38125
8938.00852	0.38256
8934.15094	0.38437
8930.29336	0.38434
8926.43578	0.38432
8922.57820	0.38427
8918.72062	0.38153
8914.86305	0.38006
8911.00547	0.38114
8907.14789	0.38226
8903.29031	0.38143
8899.43273	0.37752
8895.57516	0.37636
8891.71758	0.37747
8887.86000	0.37719
8884.00242	0.38007
8880.14484	0.38334
8876.28727	0.38350
8872.42969	0.38481
8868.57211	0.38375
8864.71453	0.37945
8860.85695	0.38028
8856.99937	0.38278
8853.14180	0.38093
8849.28422	0.37913
8845.42664	0.38008
8841.56906	0.38222
8837.71148	0.38151
8833.85391	0.38030
8829.99633	0.38344
8826.13875	0.38324
8822.28117	0.38026
8818.42359	0.38157
8814.56602	0.38080
8810.70844	0.38036
8806.85086	0.38446
8802.99328	0.38491
8799.13570	0.38363
8795.27812	0.38247
8791.42055	0.37872
8787.56297	0.37878
8783.70539	0.38082
8779.84781	0.38078
8775.99023	0.38398
8772.13266	0.38609
8768.27508	0.38236
8764.41750	0.38181
8760.55992	0.38521
8756.70234	0.38332
8752.84477	0.38017
8748.98719	0.38237
8745.12961	0.38477
8741.27203	0.38484
8737.41445	0.38471
8733.55687	0.38418
8729.69930	0.38382
8725.84172	0.38493
8721.98414	0.38597
8718.12656	0.38458
8714.26898	0.38343
8710.41141	0.38486
8706.55383	0.38477
8702.69625	0.38322
8698.83867	0.38402
8694.98109	0.38443
8691.12352	0.38179
8687.26594	0.38000
8683.40836	0.38364
8679.55078	0.38780
8675.69320	0.38584
8671.83562	0.38365
8667.97805	0.38518
8664.12047	0.38662
8660.26289	0.38561
8656.40531	0.38247
8652.54773	0.38293
8648.69016	0.38646
8644.83258	0.38640
8640.97500	0.38566
8637.11742	0.38669
8633.25984	0.38691
8629.40227	0.38734
8625.54469	0.38842
8621.68711	0.38719
8617.82953	0.38484
8613.97195	0.38607
8610.11437	0.38864
8606.25680	0.38754
8602.39922	0.38514
8598.54164	0.38574
8594.68406	0.38750
8590.82648	0.38720
8586.96891	0.38703
8583.11133	0.38817
8579.25375	0.38862
8575.39617	0.38918
8571.53859	0.38989
8567.68102	0.38926
8563.82344	0.38781
8559.96586	0.38648
8556.10828	0.38611
8552.25070	0.38681
8548.39312	0.38780
8544.53555	0.38782
8540.67797	0.38593
8536.82039	0.38472
8532.96281	0.38505
8529.10523	0.38518
8525.24766	0.38723
8521.39008	0.38986
8517.53250	0.38998
8513.67492	0.39051
8509.81734	0.39034
8505.95977	0.38733
8502.10219	0.38606
8498.24461	0.38690
8494.38703	0.38654
8490.52945	0.38601
8486.67187	0.38722
8482.81430	0.38874
8478.95672	0.38874
8475.09914	0.38829
8471.24156	0.38791
8467.38398	0.38716
8463.52641	0.38691
8459.66883	0.38752
8455.81125	0.38886
8451.95367	0.38935
8448.09609	0.38830
8444.23852	0.38822
8440.38094	0.38940
8436.52336	0.39100
8432.66578	0.39250
8428.80820	0.39142
8424.95062	0.38931
8421.09305	0.38976
8417.23547	0.39005
8413.37789	0.38795
8409.52031	0.38695
8405.66273	0.38842
8401.80516	0.38875
8397.94758	0.38730
8394.09000	0.38817
8390.23242	0.38910
8386.37484	0.38720
8382.51727	0.38798
8378.65969	0.38978
8374.80211	0.38805
8370.94453	0.38658
8367.08695	0.38580
8363.22937	0.38573
8359.37180	0.38729
8355.51422	0.38753
8351.65664	0.38739
8347.79906	0.38799
8343.94148	0.38842
8340.08391	0.38909
8336.22633	0.38929
8332.36875	0.38989
8328.51117	0.39013
8324.65359	0.38860
8320.79602	0.38846
8316.93844	0.38858
8313.08086	0.38725
8309.22328	0.38789
8305.36570	0.38863
8301.50812	0.38719
8297.65055	0.38689
8293.79297	0.38882
8289.93539	0.39034
8286.07781	0.38910
8282.22023	0.38802
8278.36266	0.38855
8274.50508	0.38759
8270.64750	0.38759
8266.78992	0.38856
8262.93234	0.38855
8259.07477	0.39051
8255.21719	0.39077
8251.35961	0.38796
8247.50203	0.38718
8243.64445	0.38859
8239.78687	0.39136
8235.92930	0.39227
8232.07172	0.39005
8228.21414	0.39017
8224.35656	0.39261
8220.49898	0.39388
8216.64141	0.39353
8212.78383	0.39170
8208.92625	0.39005
8205.06867	0.39033
8201.21109	0.39173
8197.35352	0.39240
8193.49594	0.39215
8189.63836	0.39121
8185.78078	0.39041
8181.92320	0.39167
8178.06562	0.39300
8174.20805	0.39199
8170.35047	0.39118
8166.49289	0.39112
8162.63531	0.39102
8158.77773	0.39154
8154.92016	0.39149
8151.06258	0.39129
8147.20500	0.39147
8143.34742	0.39076
8139.48984	0.39057
8135.63227	0.39134
8131.77469	0.39193
8127.91711	0.39184
8124.05953	0.39158
8120.20195	0.39224
8116.34437	0.39302
8112.48680	0.39438
8108.62922	0.39506
8104.77164	0.39348
8100.91406	0.39294
8097.05648	0.39257
8093.19891	0.39176
8089.34133	0.39269
8085.48375	0.39321
8081.62617	0.39301
8077.76859	0.39284
8073.91102	0.39226
8070.05344	0.39270
8066.19586	0.39344
8062.33828	0.39357
8058.48070	0.39374
8054.62312	0.39305
8050.76555	0.39233
8046.90797	0.39272
8043.05039	0.39227
8039.19281	0.39131
8035.33523	0.39133
8031.47766	0.39274
8027.62008	0.39463
8023.76250	0.39447
8019.90492	0.39386
8016.04734	0.39389
8012.18977	0.39334
8008.33219	0.39277
8004.47461	0.39223
8000.61703	0.39357
7996.75945	0.39586
7992.90187	0.39627
7989.04430	0.39631
7985.18672	0.39590
7981.32914	0.39519
7977.47156	0.39538
7973.61398	0.39518
7969.75641	0.39401
7965.89883	0.39279
7962.04125	0.39275
7958.18367	0.39301
7954.32609	0.39305
7950.46852	0.39454
7946.61094	0.39511
7942.75336	0.39364
7938.89578	0.39371
7935.03820	0.39483
7931.18062	0.39525
7927.32305	0.39537
7923.46547	0.39480
7919.60789	0.39408
7915.75031	0.39362
7911.89273	0.39349
7908.03516	0.39380
7904.17758	0.39416
7900.32000	0.39469
7896.46242	0.39519
7892.60484	0.39511
7888.74727	0.39393
7884.88969	0.39270
7881.03211	0.39311
7877.17453	0.39298
7873.31695	0.39214
7869.45937	0.39440
7865.60180	0.39754
7861.74422	0.39722
7857.88664	0.39549
7854.02906	0.39458
7850.17148	0.39391
7846.31391	0.39361
7842.45633	0.39410
7838.59875	0.39464
7834.74117	0.39480
7830.88359	0.39507
7827.02602	0.39498
7823.16844	0.39533
7819.31086	0.39589
7815.45328	0.39469
7811.59570	0.39432
7807.73812	0.39576
7803.88055	0.39589
7800.02297	0.39473
7796.16539	0.39362
7792.30781	0.39365
7788.45023	0.39526
7784.59266	0.39634
7780.73508	0.39583
7776.87750	0.39523
7773.01992	0.39497
7769.16234	0.39464
7765.30477	0.39501
7761.44719	0.39629
7757.58961	0.39690
7753.73203	0.39594
7749.87445	0.39457
7746.01687	0.39465
7742.15930	0.39614
7738.30172	0.39635
7734.44414	0.39577
7730.58656	0.39650
7726.72898	0.39628
7722.87141	0.39562
7719.01383	0.39612
7715.15625	0.39663
7711.29867	0.39741
7707.44109	0.39675
7703.58352	0.39494
7699.72594	0.39483
7695.86836	0.39529
7692.01078	0.39546
7688.15320	0.39516
7684.29562	0.39491
7680.43805	0.39559
7676.58047	0.39584
7672.72289	0.39609
7668.86531	0.39640
7665.00773	0.39565
7661.15016	0.39478
7657.29258	0.39396
7653.43500	0.39369
7649.57742	0.39509
7645.71984	0.39651
7641.86227	0.39660
7638.00469	0.39621
7634.14711	0.39571
7630.28953	0.39539
7626.43195	0.39601
7622.57437	0.39725
7618.71680	0.39759
7614.85922	0.39663
7611.00164	0.39576
7607.14406	0.39570
7603.28648	0.39685
7599.42891	0.39806
7595.57133	0.39708
7591.71375	0.39601
7587.85617	0.39647
7583.99859	0.39734
7580.14102	0.39864
7576.28344	0.39893
7572.42586	0.39744
7568.56828	0.39599
7564.71070	0.39648
7560.85312	0.39749
7556.99555	0.39626
7553.13797	0.39510
7549.28039	0.39615
7545.42281	0.39694
7541.56523	0.39654
7537.70766	0.39698
7533.85008	0.39748
7529.99250	0.39662
7526.13492	0.39670
7522.27734	0.39664
7518.41977	0.39625
7514.56219	0.39725
7510.70461	0.39690
7506.84703	0.39650
7502.98945	0.39750
7499.13187	0.39795
7495.27430	0.39789
7491.41672	0.39674
7487.55914	0.39644
7483.70156	0.39753
7479.84398	0.39728
7475.98641	0.39690
7472.12883	0.39743
7468.27125	0.39809
7464.41367	0.39780
7460.55609	0.39609
7456.69852	0.39596
7452.84094	0.39745
7448.98336	0.39731
7445.12578	0.39641
7441.26820	0.39673
7437.41062	0.39746
7433.55305	0.39705
7429.69547	0.39571
7425.83789	0.39611
7421.98031	0.39745
7418.12273	0.39725
7414.26516	0.39716
7410.40758	0.39674
7406.55000	0.39525
7402.69242	0.39550
7398.83484	0.39720
7394.97727	0.39757
7391.11969	0.39596
7387.26211	0.39506
7383.40453	0.39618
7379.54695	0.39642
7375.68937	0.39569
7371.83180	0.39617
7367.97422	0.39668
7364.11664	0.39634
7360.25906	0.39553
7356.40148	0.39469
7352.54391	0.39511
7348.68633	0.39584
7344.82875	0.39593
7340.97117	0.39659
7337.11359	0.39655
7333.25602	0.39649
7329.39844	0.39780
7325.54086	0.39742
7321.68328	0.39610
7317.82570	0.39597
7313.96812	0.39607
7310.11055	0.39638
7306.25297	0.39559
7302.39539	0.39493
7298.53781	0.39538
7294.68023	0.39538
7290.82266	0.39630
7286.96508	0.39701
7283.10750	0.39618
7279.24992	0.39608
7275.39234	0.39649
7271.53477	0.39686
7267.67719	0.39729
7263.81961	0.39679
7259.96203	0.39623
7256.10445	0.39682
7252.24687	0.39699
7248.38930	0.39633
7244.53172	0.39593
7240.67414	0.39570
7236.81656	0.39655
7232.95898	0.39767
7229.10141	0.39690
7225.24383	0.39602
7221.38625	0.39574
7217.52867	0.39583
7213.67109	0.39601
7209.81352	0.39630
7205.95594	0.39706
7202.09836	0.39707
7198.24078	0.39729
7194.38320	0.39810
7190.52562	0.39770
7186.66805	0.39697
7182.81047	0.39662
7178.95289	0.39616
7175.09531	0.39600
7171.23773	0.39668
7167.38016	0.39715
7163.52258	0.39589
7159.66500	0.39545
7155.80742	0.39724
7151.94984	0.39804
7148.09227	0.39675
7144.23469	0.39588
7140.37711	0.39624
7136.51953	0.39660
7132.66195	0.39725
7128.80437	0.39760
7124.94680	0.39719
7121.08922	0.39730
7117.23164	0.39766
7113.37406	0.39781
7109.51648	0.39771
7105.65891	0.39646
7101.80133	0.39549
7097.94375	0.39596
7094.08617	0.39729
7090.22859	0.39831
7086.37102	0.39791
7082.51344	0.39679
7078.65586	0.39618
7074.79828	0.39680
7070.94070	0.39791
7067.08312	0.39712
7063.22555	0.39609
7059.36797	0.39689
7055.51039	0.39762
7051.65281	0.39703
7047.79523	0.39653
7043.93766	0.39705
7040.08008	0.39693
7036.22250	0.39565
7032.36492	0.39542
7028.50734	0.39652
7024.64977	0.39738
7020.79219	0.39758
7016.93461	0.39728
7013.07703	0.39640
7009.21945	0.39593
7005.36187	0.39677
7001.50430	0.39778
6997.64672	0.39763
6993.78914	0.39689
6989.93156	0.39681
6986.07398	0.39724
6982.21641	0.39705
6978.35883	0.39670
6974.50125	0.39709
6970.64367	0.39704
6966.78609	0.39638
6962.92852	0.39647
6959.07094	0.39679
6955.21336	0.39712
6951.35578	0.39745
6947.49820	0.39694
6943.64062	0.39651
6939.78305	0.39680
6935.92547	0.39720
6932.06789	0.39709
6928.21031	0.39637
6924.35273	0.39687
6920.49516	0.39800
6916.63758	0.39734
6912.78000	0.39694
6908.92242	0.39752
6905.06484	0.39706
6901.20727	0.39668
6897.34969	0.39715
6893.49211	0.39744
6889.63453	0.39724
6885.77695	0.39702
6881.91937	0.39765
6878.06180	0.39848
6874.20422	0.39817
6870.34664	0.39759
6866.48906	0.39765
6862.63148	0.39715
6858.77391	0.39664
6854.91633	0.39757
6851.05875	0.39808
6847.20117	0.39754
6843.34359	0.39783
6839.48602	0.39844
6835.62844	0.39845
6831.77086	0.39812
6827.91328	0.39766
6824.05570	0.39739
6820.19812	0.39679
6816.34055	0.39623
6812.48297	0.39702
6808.62539	0.39801
6804.76781	0.39780
6800.91023	0.39746
6797.05266	0.39755
6793.19508	0.39766
6789.33750	0.39807
6785.47992	0.39829
6781.62234	0.39795
6777.76477	0.39770
6773.90719	0.39730
6770.04961	0.39749
6766.19203	0.39794
6762.33445	0.39704
6758.47687	0.39707
6754.61930	0.39800
6750.76172	0.39773
6746.90414	0.39779
6743.04656	0.39801
6739.18898	0.39734
6735.33141	0.39674
6731.47383	0.39698
6727.61625	0.39796
6723.75867	0.39838
6719.90109	0.39824
6716.04352	0.39845
6712.18594	0.39812
6708.32836	0.39727
6704.47078	0.39718
6700.61320	0.39749
6696.75562	0.39782
6692.89805	0.39811
6689.04047	0.39772
6685.18289	0.39718
6681.32531	0.39714
6677.46773	0.39746
6673.61016	0.39794
6669.75258	0.39812
6665.89500	0.39810
6662.03742	0.39797
6658.17984	0.39736
6654.32227	0.39691
6650.46469	0.39730
6646.60711	0.39779
6642.74953	0.39781
6638.89195	0.39777
6635.03437	0.39790
6631.17680	0.39763
6627.31922	0.39728
6623.46164	0.39808
6619.60406	0.39884
6615.74648	0.39824
6611.88891	0.39762
6608.03133	0.39756
6604.17375	0.39769
6600.31617	0.39766
6596.45859	0.39757
6592.60102	0.39776
6588.74344	0.39788
6584.88586	0.39797
6581.02828	0.39777
6577.17070	0.39705
6573.31312	0.39659
6569.45555	0.39655
6565.59797	0.39715
6561.74039	0.39810
6557.88281	0.39837
6554.02523	0.39828
6550.16766	0.39812
6546.31008	0.39776
6542.45250	0.39765
6538.59492	0.39758
6534.73734	0.39756
6530.87977	0.39766
6527.02219	0.39786
6523.16461	0.39834
6519.30703	0.39811
6515.44945	0.39774
6511.59187	0.39836
6507.73430	0.39835
6503.87672	0.39780
6500.01914	0.39797
6496.16156	0.39798
6492.30398	0.39772
6488.44641	0.39806
6484.58883	0.39871
6480.73125	0.39866
6476.87367	0.39782
6473.01609	0.39739
6469.15852	0.39807
6465.30094	0.39871
6461.44336	0.39858
6457.58578	0.39836
6453.72820	0.39859
6449.87062	0.39879
6446.01305	0.39816
6442.15547	0.39752
6438.29789	0.39775
6434.44031	0.39813
6430.58273	0.39816
6426.72516	0.39804
6422.86758	0.39811
6419.01000	0.39830
6415.15242	0.39827
6411.29484	0.39832
6407.43727	0.39864
6403.57969	0.39873
6399.72211	0.39852
6395.86453	0.39831
6392.00695	0.39829
6388.14937	0.39858
6384.29180	0.39843
6380.43422	0.39818
6376.57664	0.39874
6372.71906	0.39860
6368.86148	0.39822
6365.00391	0.39867
6361.14633	0.39847
6357.28875	0.39838
6353.43117	0.39898
6349.57359	0.39889
6345.71602	0.39827
6341.85844	0.39803
6338.00086	0.39871
6334.14328	0.39960
6330.28570	0.39929
6326.42812	0.39835
6322.57055	0.39824
6318.71297	0.39856
6314.85539	0.39904
6310.99781	0.39986
6307.14023	0.39973
6303.28266	0.39882
6299.42508	0.39875
6295.56750	0.39913
6291.70992	0.39916
6287.85234	0.39920
6283.99477	0.39945
6280.13719	0.39921
6276.27961	0.39852
6272.42203	0.39850
6268.56445	0.39908
6264.70687	0.39949
6260.84930	0.39943
6256.99172	0.39915
6253.13414	0.39948
6249.27656	0.39967
6245.41898	0.39892
6241.56141	0.39877
6237.70383	0.39958
6233.84625	0.39974
6229.98867	0.39925
6226.13109	0.39934
6222.27352	0.39993
6218.41594	0.40011
6214.55836	0.39985
6210.70078	0.39960
6206.84320	0.39979
6202.98562	0.40005
6199.12805	0.39972
6195.27047	0.39922
6191.41289	0.39908
6187.55531	0.39935
6183.69773	0.40001
6179.84016	0.40044
6175.98258	0.40005
6172.12500	0.39933
6168.26742	0.39929
6164.40984	0.40002
6160.55227	0.40010
6156.69469	0.39935
6152.83711	0.39949
6148.97953	0.39975
6145.12195	0.39939
6141.26437	0.39969
6137.40680	0.39993
6133.54922	0.40001
6129.69164	0.40034
6125.83406	0.40003
6121.97648	0.39965
6118.11891	0.39923
6114.26133	0.39913
6110.40375	0.40015
6106.54617	0.40070
6102.68859	0.40046
6098.83102	0.40038
6094.97344	0.40027
6091.11586	0.40038
6087.25828	0.40060
6083.40070	0.40012
6079.54312	0.39951
6075.68555	0.39939
6071.82797	0.39966
6067.97039	0.40029
6064.11281	0.40044
6060.25523	0.40018
6056.39766	0.40044
6052.54008	0.40056
6048.68250	0.40051
6044.82492	0.40086
6040.96734	0.40109
6037.10977	0.40105
6033.25219	0.40094
6029.39461	0.40077
6025.53703	0.40060
6021.67945	0.40062
6017.82187	0.40092
6013.96430	0.40107
6010.10672	0.40136
6006.24914	0.40163
6002.39156	0.40137
5998.53398	0.40135
5994.67641	0.40139
5990.81883	0.40151
5986.96125	0.40187
5983.10367	0.40143
5979.24609	0.40098
5975.38852	0.40109
5971.53094	0.40123
5967.67336	0.40164
5963.81578	0.40157
5959.95820	0.40114
5956.10062	0.40122
5952.24305	0.40161
5948.38547	0.40215
5944.52789	0.40215
5940.67031	0.40165
5936.81273	0.40157
5932.95516	0.40159
5929.09758	0.40133
5925.24000	0.40114
5921.38242	0.40139
5917.52484	0.40175
5913.66727	0.40176
5909.80969	0.40189
5905.95211	0.40185
5902.09453	0.40145
5898.23695	0.40165
5894.37937	0.40189
5890.52180	0.40154
5886.66422	0.40168
5882.80664	0.40227
5878.94906	0.40249
5875.09148	0.40204
5871.23391	0.40135
5867.37633	0.40168
5863.51875	0.40272
5859.66117	0.40301
5855.80359	0.40277
5851.94602	0.40266
5848.08844	0.40216
5844.23086	0.40147
5840.37328	0.40205
5836.51570	0.40369
5832.65812	0.40397
5828.80055	0.40301
5824.94297	0.40290
5821.08539	0.40307
5817.22781	0.40271
5813.37023	0.40279
5809.51266	0.40329
5805.65508	0.40344
5801.79750	0.40311
5797.93992	0.40305
5794.08234	0.40341
5790.22477	0.40324
5786.36719	0.40287
5782.50961	0.40310
5778.65203	0.40317
5774.79445	0.40285
5770.93687	0.40292
5767.07930	0.40336
5763.22172	0.40347
5759.36414	0.40332
5755.50656	0.40332
5751.64898	0.40340
5747.79141	0.40367
5743.93383	0.40395
5740.07625	0.40354
5736.21867	0.40301
5732.36109	0.40335
5728.50352	0.40379
5724.64594	0.40362
5720.78836	0.40325
5716.93078	0.40285
5713.07320	0.40297
5709.21562	0.40344
5705.35805	0.40331
5701.50047	0.40359
5697.64289	0.40458
5693.78531	0.40467
5689.92773	0.40383
5686.07016	0.40362
5682.21258	0.40430
5678.35500	0.40426
5674.49742	0.40385
5670.63984	0.40434
5666.78227	0.40435
5662.92469	0.40381
5659.06711	0.40384
5655.20953	0.40371
5651.35195	0.40370
5647.49437	0.40428
5643.63680	0.40409
5639.77922	0.40352
5635.92164	0.40390
5632.06406	0.40453
5628.20648	0.40488
5624.34891	0.40518
5620.49133	0.40547
5616.63375	0.40553
5612.77617	0.40508
5608.91859	0.40450
5605.06102	0.40437
5601.20344	0.40481
5597.34586	0.40542
5593.48828	0.40572
5589.63070	0.40562
5585.77312	0.40527
5581.91555	0.40490
5578.05797	0.40486
5574.20039	0.40514
5570.34281	0.40499
5566.48523	0.40477
5562.62766	0.40500
5558.77008	0.40492
5554.91250	0.40505
5551.05492	0.40576
5547.19734	0.40614
5543.33977	0.40620
5539.48219	0.40610
5535.62461	0.40586
5531.76703	0.40597
5527.90945	0.40625
5524.05187	0.40596
5520.19430	0.40584
5516.33672	0.40666
5512.47914	0.40675
5508.62156	0.40554
5504.76398	0.40528
5500.90641	0.40642
5497.04883	0.40715
5493.19125	0.40671
5489.33367	0.40638
5485.47609	0.40696
5481.61852	0.40708
5477.76094	0.40692
5473.90336	0.40746
5470.04578	0.40708
5466.18820	0.40570
5462.33062	0.40545
5458.47305	0.40646
5454.61547	0.40707
5450.75789	0.40732
5446.90031	0.40793
5443.04273	0.40795
5439.18516	0.40738
5435.32758	0.40728
5431.47000	0.40766
5427.61242	0.40796
5423.75484	0.40798
5419.89727	0.40772
5416.03969	0.40672
5412.18211	0.40616
5408.32453	0.40684
5404.46695	0.40715
5400.60937	0.40711
5396.75180	0.40707
5392.89422	0.40749
5389.03664	0.40780
5385.17906	0.40783
5381.32148	0.40772
5377.46391	0.40627
5373.60633	0.40606
5369.74875	0.40752
5365.89117	0.40832
5362.03359	0.40896
5358.17602	0.40819
5354.31844	0.40676
5350.46086	0.40747
5346.60328	0.40851
5342.74570	0.40886
5338.88812	0.40885
5335.03055	0.40871
5331.17297	0.40856
5327.31539	0.40806
5323.45781	0.40790
5319.60023	0.40825
5315.74266	0.40869
5311.88508	0.40873
5308.02750	0.40843
5304.16992	0.40823
5300.31234	0.40806
5296.45477	0.40795
5292.59719	0.40800
5288.73961	0.40863
5284.88203	0.40916
5281.02445	0.40876
5277.16687	0.40853
5273.30930	0.40877
5269.45172	0.40859
5265.59414	0.40835
5261.73656	0.40871
5257.87898	0.40900
5254.02141	0.40944
5250.16383	0.40985
5246.30625	0.40952
5242.44867	0.40944
5238.59109	0.40940
5234.73352	0.40901
5230.87594	0.40876
5227.01836	0.40875
5223.16078	0.40920
5219.30320	0.40927
5215.44562	0.40917
5211.58805	0.40895
5207.73047	0.40788
5203.87289	0.40827
5200.01531	0.40957
5196.15773	0.40972
5192.30016	0.40954
5188.44258	0.40961
5184.58500	0.40976
5180.72742	0.40997
5176.86984	0.41021
5173.01227	0.41062
5169.15469	0.41077
5165.29711	0.41049
5161.43953	0.41037
5157.58195	0.41025
5153.72437	0.40962
5149.86680	0.40923
5146.00922	0.40966
5142.15164	0.41017
5138.29406	0.41043
5134.43648	0.41036
5130.57891	0.41006
5126.72133	0.41009
5122.86375	0.41033
5119.00617	0.41026
5115.14859	0.40991
5111.29102	0.40992
5107.43344	0.41031
5103.57586	0.41027
5099.71828	0.41006
5095.86070	0.41011
5092.00312	0.41042
5088.14555	0.41088
5084.28797	0.41117
5080.43039	0.41114
5076.57281	0.41084
5072.71523	0.41057
5068.85766	0.41045
5065.00008	0.41038
5061.14250	0.41039
5057.28492	0.41031
5053.42734	0.41036
5049.56977	0.41060
5045.71219	0.41089
5041.85461	0.41112
5037.99703	0.41111
5034.13945	0.41114
5030.28187	0.41106
5026.42430	0.41097
5022.56672	0.41123
5018.70914	0.41118
5014.85156	0.41097
5010.99398	0.41127
5007.13641	0.41149
5003.27883	0.41109
4999.42125	0.41073
4995.56367	0.41082
4991.70609	0.41092
4987.84852	0.41124
4983.99094	0.41168
4980.13336	0.41152
4976.27578	0.41137
4972.41820	0.41169
4968.56062	0.41194
4964.70305	0.41213
4960.84547	0.41223
4956.98789	0.41206
4953.13031	0.41168
4949.27273	0.41116
4945.41516	0.41118
4941.55758	0.41208
4937.70000	0.41247
4933.84242	0.41206
4929.98484	0.41221
4926.12727	0.41246
4922.26969	0.41211
4918.41211	0.41209
4914.55453	0.41229
4910.69695	0.41227
4906.83937	0.41254
4902.98180	0.41283
4899.12422	0.41268
4895.26664	0.41255
4891.40906	0.41254
4887.55148	0.41228
4883.69391	0.41227
4879.83633	0.41245
4875.97875	0.41254
4872.12117	0.41272
4868.26359	0.41246
4864.40602	0.41214
4860.54844	0.41246
4856.69086	0.41299
4852.83328	0.41321
4848.97570	0.41263
4845.11812	0.41207
4841.26055	0.41218
4837.40297	0.41214
4833.54539	0.41196
4829.68781	0.41215
4825.83023	0.41261
4821.97266	0.41270
4818.11508	0.41231
4814.25750	0.41241
4810.39992	0.41298
4806.54234	0.41280
4802.68477	0.41213
4798.82719	0.41214
4794.96961	0.41254
4791.11203	0.41244
4787.25445	0.41175
4783.39687	0.41138
4779.53930	0.41167
4775.68172	0.41189
4771.82414	0.41229
4767.96656	0.41288
4764.10898	0.41281
4760.25141	0.41251
4756.39383	0.41255
4752.53625	0.41277
4748.67867	0.41277
4744.82109	0.41250
4740.96352	0.41228
4737.10594	0.41198
4733.24836	0.41183
4729.39078	0.41206
4725.53320	0.41234
4721.67562	0.41258
4717.81805	0.41265
4713.96047	0.41257
4710.10289	0.41246
4706.24531	0.41242
4702.38773	0.41237
4698.53016	0.41220
4694.67258	0.41240
4690.81500	0.41264
4686.95742	0.41228
4683.09984	0.41214
4679.24227	0.41251
4675.38469	0.41249
4671.52711	0.41208
4667.66953	0.41199
4663.81195	0.41202
4659.95437	0.41222
4656.09680	0.41261
4652.23922	0.41281
4648.38164	0.41278
4644.52406	0.41223
4640.66648	0.41186
4636.80891	0.41256
4632.95133	0.41303
4629.09375	0.41275
4625.23617	0.41231
4621.37859	0.41199
4617.52102	0.41222
4613.66344	0.41223
4609.80586	0.41172
4605.94828	0.41197
4602.09070	0.41262
4598.23312	0.41248
4594.37555	0.41198
4590.51797	0.41195
4586.66039	0.41199
4582.80281	0.41144
4578.94523	0.41105
4575.08766	0.41160
4571.23008	0.41221
4567.37250	0.41225
4563.51492	0.41216
4559.65734	0.41199
4555.79977	0.41169
4551.94219	0.41167
4548.08461	0.41195
4544.22703	0.41232
4540.36945	0.41229
4536.51187	0.41179
4532.65430	0.41158
4528.79672	0.41156
4524.93914	0.41166
4521.08156	0.41209
4517.22398	0.41199
4513.36641	0.41138
4509.50883	0.41117
4505.65125	0.41145
4501.79367	0.41167
4497.93609	0.41164
4494.07852	0.41178
4490.22094	0.41183
4486.36336	0.41154
4482.50578	0.41153
4478.64820	0.41166
4474.79062	0.41158
4470.93305	0.41171
4467.07547	0.41181
4463.21789	0.41155
4459.36031	0.41130
4455.50273	0.41116
4451.64516	0.41122
4447.78758	0.41133
4443.93000	0.41108
4440.07242	0.41067
4436.21484	0.41061
4432.35727	0.41109
4428.49969	0.41144
4424.64211	0.41132
4420.78453	0.41130
4416.92695	0.41130
4413.06937	0.41129
4409.21180	0.41127
4405.35422	0.41102
4401.49664	0.41081
4397.63906	0.41085
4393.78148	0.41096
4389.92391	0.41090
4386.06633	0.41080
4382.20875	0.41097
4378.35117	0.41109
4374.49359	0.41078
4370.63602	0.41044
4366.77844	0.41047
4362.92086	0.41050
4359.06328	0.41047
4355.20570	0.41058
4351.34812	0.41054
4347.49055	0.41018
4343.63297	0.41004
4339.77539	0.41039
4335.91781	0.41049
4332.06023	0.41026
4328.20266	0.41017
4324.34508	0.40999
4320.48750	0.40997
4316.62992	0.41015
4312.77234	0.40997
4308.91477	0.40958
4305.05719	0.40944
4301.19961	0.40977
4297.34203	0.41014
4293.48445	0.40990
4289.62687	0.40949
4285.76930	0.40964
4281.91172	0.40976
4278.05414	0.40945
4274.19656	0.40932
4270.33898	0.40942
4266.48141	0.40963
4262.62383	0.40984
4258.76625	0.40968
4254.90867	0.40932
4251.05109	0.40916
4247.19352	0.40916
4243.33594	0.40915
4239.47836	0.40906
4235.62078	0.40900
4231.76320	0.40906
4227.90562	0.40917
4224.04805	0.40931
4220.19047	0.40935
4216.33289	0.40910
4212.47531	0.40880
4208.61773	0.40881
4204.76016	0.40897
4200.90258	0.40900
4197.04500	0.40895
4193.18742	0.40894
4189.32984	0.40897
4185.47227	0.40896
4181.61469	0.40878
4177.75711	0.40850
4173.89953	0.40846
4170.04195	0.40854
4166.18437	0.40841
4162.32680	0.40832
4158.46922	0.40836
4154.61164	0.40832
4150.75406	0.40828
4146.89648	0.40834
4143.03891	0.40858
4139.18133	0.40861
4135.32375	0.40834
4131.46617	0.40845
4127.60859	0.40862
4123.75102	0.40850
4119.89344	0.40860
4116.03586	0.40845
4112.17828	0.40789
4108.32070	0.40770
4104.46312	0.40789
4100.60555	0.40800
4096.74797	0.40790
4092.89039	0.40791
4089.03281	0.40797
4085.17523	0.40787
4081.31766	0.40802
4077.46008	0.40803
4073.60250	0.40755
4069.74492	0.40752
4065.88734	0.40788
4062.02977	0.40788
4058.17219	0.40772
4054.31461	0.40734
4050.45703	0.40691
4046.59945	0.40720
4042.74187	0.40777
4038.88430	0.40783
4035.02672	0.40762
4031.16914	0.40752
4027.31156	0.40754
4023.45398	0.40743
4019.59641	0.40736
4015.73883	0.40739
4011.88125	0.40732
4008.02367	0.40717
4004.16609	0.40709
4000.30852	0.40734
3996.45094	0.40753
3992.59336	0.40736
3988.73578	0.40737
3984.87820	0.40748
3981.02062	0.40726
3977.16305	0.40694
3973.30547	0.40688
3969.44789	0.40708
3965.59031	0.40711
3961.73273	0.40695
3957.87516	0.40726
3954.01758	0.40784
3950.16000	0.40751
3946.30242	0.40695
3942.44484	0.40704
3938.58727	0.40700
3934.72969	0.40726
3930.87211	0.40744
3927.01453	0.40735
3923.15695	0.40753
3919.29937	0.40625
3915.44180	0.40521
3911.58422	0.40611
3907.72664	0.40724
3903.86906	0.40881
3900.01148	0.40799
3896.15391	0.40666
3892.29633	0.40767
3888.43875	0.40767
3884.58117	0.40506
3880.72359	0.40460
3876.86602	0.40670
3873.00844	0.40855
3869.15086	0.40897
3865.29328	0.40718
3861.43570	0.40625
3857.57812	0.40834
3853.72055	0.40831
3849.86297	0.40515
3846.00539	0.40727
3842.14781	0.41093
3838.29023	0.40876
3834.43266	0.40443
3830.57508	0.40469
3826.71750	0.40652
3822.85992	0.40684
3819.00234	0.40652
3815.14477	0.40747
3811.28719	0.40765
3807.42961	0.40683
3803.57203	0.40621
3799.71445	0.40635
3795.85687	0.40635
3791.99930	0.40631
3788.14172	0.40638
3784.28414	0.40698
3780.42656	0.40715
3776.56898	0.40668
3772.71141	0.40680
3768.85383	0.40669
3764.99625	0.40603
3761.13867	0.40534
3757.28109	0.40520
3753.42352	0.40591
3749.56594	0.40611
3745.70836	0.40692
3741.85078	0.40816
3737.99320	0.40790
3734.13562	0.40419
3730.27805	0.40322
3726.42047	0.40452
3722.56289	0.40394
3718.70531	0.40360
3714.84773	0.40370
3710.99016	0.40371
3707.13258	0.40512
3703.27500	0.40568
3699.41742	0.40558
3695.55984	0.40567
3691.70227	0.40517
3687.84469	0.40484
3683.98711	0.40577
3680.12953	0.40678
3676.27195	0.40690
3672.41437	0.40644
3668.55680	0.40673
3664.69922	0.40731
3660.84164	0.40753
3656.98406	0.40661
3653.12648	0.40633
3649.26891	0.40671
3645.41133	0.40601
3641.55375	0.40604
3637.69617	0.40608
3633.83859	0.40661
3629.98102	0.40677
3626.12344	0.40494
3622.26586	0.40546
3618.40828	0.40706
3614.55070	0.40583
3610.69312	0.40434
3606.83555	0.40504
3602.97797	0.40565
3599.12039	0.40495
3595.26281	0.40472
3591.40523	0.40560
3587.54766	0.40636
3583.69008	0.40657
3579.83250	0.40665
3575.97492	0.40623
3572.11734	0.40566
3568.25977	0.40603
3564.40219	0.40636
3560.54461	0.40558
3556.68703	0.40524
3552.82945	0.40566
3548.97187	0.40589
3545.11430	0.40598
3541.25672	0.40585
3537.39914	0.40512
3533.54156	0.40482
3529.68398	0.40524
3525.82641	0.40529
3521.96883	0.40500
3518.11125	0.40491
3514.25367	0.40490
3510.39609	0.40470
3506.53852	0.40456
3502.68094	0.40457
3498.82336	0.40445
3494.96578	0.40454
3491.10820	0.40471
3487.25062	0.40449
3483.39305	0.40409
3479.53547	0.40389
3475.67789	0.40398
3471.82031	0.40415
3467.96273	0.40415
3464.10516	0.40408
3460.24758	0.40396
3456.39000	0.40391
3452.53242	0.40405
3448.67484	0.40395
3444.81727	0.40368
3440.95969	0.40365
3437.10211	0.40346
3433.24453	0.40332
3429.38695	0.40354
3425.52937	0.40369
3421.67180	0.40365
3417.81422	0.40346
3413.95664	0.40334
3410.09906	0.40340
3406.24148	0.40341
3402.38391	0.40330
3398.52633	0.40322
3394.66875	0.40317
3390.81117	0.40303
3386.95359	0.40281
3383.09602	0.40264
3379.23844	0.40267
3375.38086	0.40267
3371.52328	0.40246
3367.66570	0.40234
3363.80812	0.40256
3359.95055	0.40281
3356.09297	0.40272
3352.23539	0.40258
3348.37781	0.40260
3344.52023	0.40271
3340.66266	0.40274
3336.80508	0.40249
3332.94750	0.40227
3329.08992	0.40226
3325.23234	0.40234
3321.37477	0.40244
3317.51719	0.40223
3313.65961	0.40194
3309.80203	0.40185
3305.94445	0.40177
3302.08687	0.40191
3298.22930	0.40218
3294.37172	0.40203
3290.51414	0.40178
3286.65656	0.40188
3282.79898	0.40193
3278.94141	0.40165
3275.08383	0.40153
3271.22625	0.40183
3267.36867	0.40189
3263.51109	0.40153
3259.65352	0.40133
3255.79594	0.40123
3251.93836	0.40121
3248.08078	0.40127
3244.22320	0.40110
3240.36562	0.40108
3236.50805	0.40123
3232.65047	0.40113
3228.79289	0.40101
3224.93531	0.40092
3221.07773	0.40084
3217.22016	0.40072
3213.36258	0.40033
3209.50500	0.40006
3205.64742	0.40022
3201.78984	0.40052
3197.93227	0.40049
3194.07469	0.40013
3190.21711	0.40006
3186.35953	0.40022
3182.50195	0.40010
3178.64437	0.39987
3174.78680	0.39980
3170.92922	0.39986
3167.07164	0.39989
3163.21406	0.39977
3159.35648	0.39947
3155.49891	0.39920
3151.64133	0.39926
3147.78375	0.39948
3143.92617	0.39949
3140.06859	0.39936
3136.21102	0.39926
3132.35344	0.39914
3128.49586	0.39885
3124.63828	0.39862
3120.78070	0.39869
3116.92312	0.39883
3113.06555	0.39877
3109.20797	0.39846
3105.35039	0.39817
3101.49281	0.39797
3097.63523	0.39775
3093.77766	0.39762
3089.92008	0.39757
3086.06250	0.39752
3082.20492	0.39748
3078.34734	0.39736
3074.48977	0.39715
3070.63219	0.39693
3066.77461	0.39684
3062.91703	0.39700
3059.05945	0.39706
3055.20187	0.39672
3051.34430	0.39629
3047.48672	0.39601
3043.62914	0.39592
3039.77156	0.39605
3035.91398	0.39611
3032.05641	0.39588
3028.19883	0.39561
3024.34125	0.39537
3020.48367	0.39508
3016.62609	0.39492
3012.76852	0.39482
3008.91094	0.39462
3005.05336	0.39456
3001.19578	0.39452
2997.33820	0.39432
2993.48062	0.39409
2989.62305	0.39371
2985.76547	0.39330
2981.90789	0.39319
2978.05031	0.39311
2974.19273	0.39271
2970.33516	0.39226
2966.47758	0.39191
2962.62000	0.39156
2958.76242	0.39137
2954.90484	0.39128
2951.04727	0.39111
2947.18969	0.39082
2943.33211	0.39031
2939.47453	0.38986
2935.61695	0.38963
2931.75937	0.38935
2927.90180	0.38884
2924.04422	0.38806
2920.18664	0.38723
2916.32906	0.38719
2912.47148	0.38810
2908.61391	0.38887
2904.75633	0.38906
2900.89875	0.38892
2897.04117	0.38852
2893.18359	0.38824
2889.32602	0.38840
2885.46844	0.38849
2881.61086	0.38811
2877.75328	0.38778
2873.89570	0.38773
2870.03812	0.38758
2866.18055	0.38736
2862.32297	0.38705
2858.46539	0.38674
2854.60781	0.38635
2850.75023	0.38596
2846.89266	0.38607
2843.03508	0.38642
2839.17750	0.38672
2835.31992	0.38682
2831.46234	0.38658
2827.60477	0.38635
2823.74719	0.38608
2819.88961	0.38570
2816.03203	0.38550
2812.17445	0.38545
2808.31687	0.38539
2804.45930	0.38494
2800.60172	0.38449
2796.74414	0.38452
2792.88656	0.38439
2789.02898	0.38399
2785.17141	0.38392
2781.31383	0.38398
2777.45625	0.38366
2773.59867	0.38329
2769.74109	0.38301
2765.88352	0.38256
2762.02594	0.38236
2758.16836	0.38237
2754.31078	0.38227
2750.45320	0.38198
2746.59562	0.38141
2742.73805	0.38110
2738.88047	0.38112
2735.02289	0.38111
2731.16531	0.38103
2727.30773	0.38051
2723.45016	0.37990
2719.59258	0.37965
2715.73500	0.37947
2711.87742	0.37908
2708.01984	0.37861
2704.16227	0.37842
2700.30469	0.37828
2696.44711	0.37803
2692.58953	0.37797
2688.73195	0.37770
2684.87437	0.37723
2681.01680	0.37701
2677.15922	0.37668
2673.30164	0.37619
2669.44406	0.37597
2665.58648	0.37596
2661.72891	0.37591
2657.87133	0.37561
2654.01375	0.37499
2650.15617	0.37457
2646.29859	0.37444
2642.44102	0.37402
2638.58344	0.37359
2634.72586	0.37334
2630.86828	0.37297
2627.01070	0.37281
2623.15312	0.37265
2619.29555	0.37188
2615.43797	0.37131
2611.58039	0.37140
2607.72281	0.37125
2603.86523	0.37083
2600.00766	0.37059
2596.15008	0.37032
2592.29250	0.36990
2588.43492	0.36942
2584.57734	0.36903
2580.71977	0.36887
2576.86219	0.36868
2573.00461	0.36838
2569.14703	0.36807
2565.28945	0.36755
2561.43187	0.36696
2557.57430	0.36643
2553.71672	0.36617
2549.85914	0.36619
2546.00156	0.36587
2542.14398	0.36533
2538.28641	0.36487
2534.42883	0.36430
2530.57125	0.36396
2526.71367	0.36373
2522.85609	0.36334
2518.99852	0.36287
2515.14094	0.36246
2511.28336	0.36215
2507.42578	0.36168
2503.56820	0.36147
2499.71062	0.36141
2495.85305	0.36089
2491.99547	0.36039
2488.13789	0.35995
2484.28031	0.35938
2480.42273	0.35903
2476.56516	0.35884
2472.70758	0.35851
2468.85000	0.35786
2464.99242	0.35734
2461.13484	0.35706
2457.27727	0.35664
2453.41969	0.35636
2449.56211	0.35645
2445.70453	0.35635
2441.84695	0.35541
2437.98937	0.35430
2434.13180	0.35418
2430.27422	0.35423
2426.41664	0.35377
2422.55906	0.35348
2418.70148	0.35298
2414.84391	0.35206
2410.98633	0.35153
2407.12875	0.35147
2403.27117	0.35145
2399.41359	0.35095
2395.55602	0.35014
2391.69844	0.34982
2387.84086	0.34952
2383.98328	0.34862
2380.12570	0.34683
2376.26812	0.34322
2372.41055	0.34026
2368.55297	0.34502
2364.69539	0.35023
2360.83781	0.35036
2356.98023	0.34965
2353.12266	0.34043
2349.26508	0.33603
2345.40750	0.33659
2341.54992	0.34117
2337.69234	0.34379
2333.83477	0.34329
2329.97719	0.33997
2326.11961	0.33738
2322.26203	0.33754
2318.40445	0.33772
2314.54687	0.33676
2310.68930	0.33539
2306.83172	0.33526
2302.97414	0.33623
2299.11656	0.33670
2295.25898	0.33609
2291.40141	0.33493
2287.54383	0.33449
2283.68625	0.33495
2279.82867	0.33451
2275.97109	0.33317
2272.11352	0.33280
2268.25594	0.33255
2264.39836	0.33140
2260.54078	0.33101
2256.68320	0.33150
2252.82562	0.33118
2248.96805	0.32990
2245.11047	0.32896
2241.25289	0.32921
2237.39531	0.32922
2233.53773	0.32795
2229.68016	0.32700
2225.82258	0.32691
2221.96500	0.32692
2218.10742	0.32621
2214.24984	0.32462
2210.39227	0.32312
2206.53469	0.32244
2202.67711	0.32279
2198.81953	0.32260
2194.96195	0.32099
2191.10437	0.32003
2187.24680	0.32015
2183.38922	0.31970
2179.53164	0.31876
2175.67406	0.31845
2171.81648	0.31791
2167.95891	0.31679
2164.10133	0.31623
2160.24375	0.31524
2156.38617	0.31425
2152.52859	0.31417
2148.67102	0.31303
2144.81344	0.31172
2140.95586	0.31226
2137.09828	0.31265
2133.24070	0.31051
2129.38312	0.30761
2125.52555	0.30793
2121.66797	0.30999
2117.81039	0.30907
2113.95281	0.30668
2110.09523	0.30626
2106.23766	0.30657
2102.38008	0.30654
2098.52250	0.30685
2094.66492	0.30512
2090.80734	0.30177
2086.94977	0.30226
2083.09219	0.30245
2079.23461	0.29712
2075.37703	0.29413
2071.51945	0.29683
2067.66187	0.29921
2063.80430	0.29940
2059.94672	0.29920
2056.08914	0.29802
2052.23156	0.29716
2048.37398	0.29795
2044.51641	0.29668
2040.65883	0.29562
2036.80125	0.29605
2032.94367	0.29192
2029.08609	0.28585
2025.22852	0.28415
2021.37094	0.28692
2017.51336	0.28951
2013.65578	0.28732
2009.79820	0.28435
2005.94062	0.28405
2002.08305	0.28219
1998.22547	0.27925
1994.36789	0.28013
1990.51031	0.28065
1986.65273	0.27630
1982.79516	0.27414
1978.93758	0.27778
1975.08000	0.27983
1971.22242	0.27654
1967.36484	0.27346
1963.50727	0.27327
1959.64969	0.27363
1955.79211	0.27198
1951.93453	0.26691
1948.07695	0.26204
1944.21937	0.26297
1940.36180	0.26847
1936.50422	0.26936
1932.64664	0.26473
1928.78906	0.26202
1924.93148	0.26296
1921.07391	0.26420
1917.21633	0.26513
1913.35875	0.26312
1909.50117	0.25897
1905.64359	0.25776
1901.78602	0.25708
1897.92844	0.25423
1894.07086	0.25225
1890.21328	0.25250
1886.35570	0.25254
1882.49812	0.25032
1878.64055	0.24711
1874.78297	0.24580
1870.92539	0.24691
1867.06781	0.24821
1863.21023	0.24770
1859.35266	0.24452
1855.49508	0.24030
1851.63750	0.24019
1847.77992	0.24189
1843.92234	0.24126
1840.06477	0.23821
1836.20719	0.23502
1832.34961	0.23507
1828.49203	0.23695
1824.63445	0.23572
1820.77687	0.23325
1816.91930	0.23241
1813.06172	0.23277
1809.20414	0.23146
1805.34656	0.22897
1801.48898	0.22760
1797.63141	0.22708
1793.77383	0.22343
1789.91625	0.22003
1786.05867	0.22347
1782.20109	0.22568
1778.34352	0.22392
1774.48594	0.22315
1770.62836	0.21623
1766.77078	0.21064
1762.91320	0.21211
1759.05562	0.21239
1755.19805	0.21124
1751.34047	0.20921
1747.48289	0.20395
1743.62531	0.20229
1739.76773	0.20307
1735.91016	0.20380
1732.05258	0.20448
1728.19500	0.20398
1724.33742	0.20243
1720.47984	0.19589
1716.62227	0.19095
1712.76469	0.19983
1708.90711	0.20163
1705.04953	0.19663
1701.19195	0.19521
1697.33437	0.19492
1693.47680	0.19121
1689.61922	0.18855
1685.76164	0.18678
1681.90406	0.18507
1678.04648	0.18411
1674.18891	0.18525
1670.33133	0.18479
1666.47375	0.18168
1662.61617	0.17943
1658.75859	0.17849
1654.90102	0.17732
1651.04344	0.17276
1647.18586	0.17241
1643.32828	0.17362
1639.47070	0.17428
1635.61312	0.17772
1631.75555	0.17360
1627.89797	0.16668
1624.04039	0.16383
1620.18281	0.16270
1616.32523	0.16223
1612.46766	0.16201
1608.61008	0.15951
1604.75250	0.15638
1600.89492	0.15361
1597.03734	0.15229
1593.17977	0.15455
1589.32219	0.15744
1585.46461	0.15808
1581.60703	0.15664
1577.74945	0.15211
1573.89187	0.14798
1570.03430	0.14754
1566.17672	0.14746
1562.31914	0.14684
1558.46156	0.14201
1554.60398	0.13985
1550.74641	0.14157
1546.88883	0.14137
1543.03125	0.14508
1539.17367	0.14716
1535.31609	0.14076
1531.45852	0.13781
1527.60094	0.13637
1523.74336	0.13282
1519.88578	0.12179
1516.02820	0.11949
1512.17062	0.12501
1508.31305	0.12750
1504.45547	0.12658
1500.59789	0.12491
1496.74031	0.12248
1492.88273	0.11997
1489.02516	0.11294
1485.16758	0.11024
1481.31000	0.11437
1477.45242	0.11615
1473.59484	0.11272
1469.73727	0.10955
1465.87969	0.10967
1462.02211	0.10870
1458.16453	0.10730
1454.30695	0.11032
1450.44937	0.10544
1446.59180	0.09674
1442.73422	0.09680
1438.87664	0.09893
1435.01906	0.09738
1431.16148	0.09738
1427.30391	0.09795
1423.44633	0.09834
1419.58875	0.09971
1415.73117	0.09637
1411.87359	0.09148
1408.01602	0.09269
1404.15844	0.09355
1400.30086	0.08656
1396.44328	0.08244
1392.58570	0.08396
1388.72812	0.08412
1384.87055	0.08489
1381.01297	0.08187
1377.15539	0.07447
1373.29781	0.07342
1369.44023	0.07755
1365.58266	0.07662
1361.72508	0.07308
1357.86750	0.06940
1354.00992	0.06838
1350.15234	0.07371
1346.29477	0.07679
1342.43719	0.07230
1338.57961	0.06558
1334.72203	0.06332
1330.86445	0.06354
1327.00687	0.06145
1323.14930	0.05864
1319.29172	0.05922
1315.43414	0.06184
1311.57656	0.06189
1307.71898	0.05854
1303.86141	0.05752
1300.00383	0.06045
1296.14625	0.05880
1292.28867	0.05334
1288.43109	0.05293
1284.57352	0.05399
1280.71594	0.05225
1276.85836	0.04997
1273.00078	0.04902
1269.14320	0.04750
1265.28562	0.04297
1261.42805	0.04489
1257.57047	0.05005
1253.71289	0.04294
1249.85531	0.04112
1245.99773	0.05442
1242.14016	0.06011
1238.28258	0.05307
1234.42500	0.04492
1230.56742	0.03644
1226.70984	0.03367
1222.85227	0.03812
1218.99469	0.03842
1215.13711	0.04037
1211.27953	0.04009
1207.42195	0.02565
1203.56437	0.02302
1199.70680	0.03549
1195.84922	0.03591
1191.99164	0.03189
1188.13406	0.03073
1184.27648	0.02750
1180.41891	0.02479
1176.56133	0.02276
1172.70375	0.02737
1168.84617	0.03048
1164.98859	0.02064
1161.13102	0.02050
1157.27344	0.03757
1153.41586	0.04344
1149.55828	0.02644
1145.70070	0.02098
1141.84312	0.06173
1137.98555	0.11190
1134.12797	0.10255
1130.27039	0.03314
1126.41281	-0.03495
1122.55523	0.00013
1118.69766	0.07912
1114.84008	-0.02358
1110.98250	-0.04676
1107.12492	-0.04327
1103.26734	-0.07791
1099.40977	-0.05235
1095.55219	0.01614
1091.69461	-0.02788
1087.83703	-0.10710
1083.97945	-0.06916
1080.12187	-0.05451
1076.26430	-0.09855
1072.40672	-0.19187
1068.54914	-0.49889
1064.69156	-2.76022
1060.83398	-2.76022
1056.97641	0.03819
1053.11883	0.59646
1049.26125	1.36101
1045.40367	0.53339
1041.54609	0.11397
1037.68852	0.05036
1033.83094	0.08529
1029.97336	-0.11470
1026.11578	-0.49123
1022.25820	0.11600
1018.40062	0.33227
1014.54305	-0.20696
1010.68547	-2.24897
1006.82789	-2.24897
1002.97031	7.14418
999.11273	0.00038
995.25516	0.00038
991.39758	0.00038
987.54000	1.03981
983.68242	0.53173
979.82484	-0.39198
975.96727	-0.39198
972.10969	1.46072
968.25211	1.46072
964.39453	1.46072
960.53695	1.46072
956.67937	0.18976
952.82180	0.85878
948.96422	1.04162
945.10664	0.78609
941.24906	1.38663
937.39148	1.38663
933.53391	1.38663
929.67633	0.44926
925.81875	0.17853
921.96117	0.16698
918.10359	0.07869
914.24602	-0.11128
910.38844	0.63210
906.53086	0.63210
902.67328	0.44143
898.81570	1.01623
894.95812	1.22140
891.10055	0.94202
887.24297	3.14577
883.38539	0.02171
879.52781	-0.48480
875.67023	0.23900
871.81266	1.08842
867.95508	3.04905
864.09750	3.04905
860.23992	3.04905
856.38234	0.53770
852.52477	0.51287
848.66719	0.44962
844.80961	0.12493
840.95203	-0.06100
837.09445	0.57677
833.23687	6.18923
829.37930	3.65702
825.52172	0.29157
821.66414	0.81032
817.80656	1.19738
813.94898	0.95584
810.09141	0.62084
806.23383	0.59127
802.37625	-0.13485
798.51867	0.90629
794.66109	0.66768
790.80352	-0.09929
786.94594	-0.48167
783.08836	-0.27534
779.23078	-0.19313
775.37320	-0.19313
771.51562	-0.19313
767.65805	-0.19313
763.80047	0.32333
759.94289	1.59228
756.08531	2.91952
752.22773	2.91952
748.37016	-0.59114
744.51258	0.21176
740.65500	0.93049
736.79742	1.49585
732.93984	1.49585
729.08227	1.49585
725.22469	-0.33807
721.36711	-0.08396
717.50953	0.20742
713.65195	0.28142
709.79437	0.36463
705.93680	-0.03612
702.07922	-0.03612
698.22164	-0.03612
694.36406	-0.32453
690.50648	-0.24271
686.64891	0.29355
682.79133	0.12032
678.93375	-0.06830
675.07617	0.14828
671.21859	0.13475
667.36102	0.20828
663.50344	0.20828
659.64586	0.20828
655.78828	0.20828
651.93070	-0.41150
648.07312	0.16711
644.21555	0.28107
640.35797	0.67621
636.50039	2.40826
632.64281	2.40826
628.78523	2.40826
624.92766	0.16431
621.07008	-0.19849
617.21250	0.31735
613.35492	2.57640
609.49734	2.57640
605.63977	2.57640
601.78219	0.51051
597.92461	-0.36444
594.06703	-0.34610
590.20945	0.06186
586.35187	0.69912
582.49430	1.77025
578.63672	1.23178
574.77914	0.59647
570.92156	0.51039
567.06398	1.65568
563.20641	1.65568
559.34883	1.65568
555.49125	-1.41334
551.63367	-0.63507
547.77609	3.04076
543.91852	3.04076
540.06094	3.04076
536.20336	3.04076
532.34578	-1.15778
528.48820	0.41729
524.63062	2.20368
520.77305	2.20368
516.91547	2.20368
513.05789	-0.21191
509.20031	3.08624
505.34273	3.08624
501.48516	3.08624
497.62758	0.31396
493.77000	0.89902
489.91242	0.89902
486.05484	0.89902
482.19727	0.89902
478.33969	0.94355
474.48211	0.08023
470.62453	0.07450
466.76695	0.15777
462.90937	1.04441
459.05180	1.10488
455.19422	0.08484
451.33664	0.54425
447.47906	0.82056
443.62148	0.87564
439.76391	1.58555
435.90633	0.87203
432.04875	0.16608
428.19117	-0.45254
424.33359	-0.41328
420.47602	0.35746
416.61844	1.12032
412.76086	0.74319
408.90328	-1.84640
405.04570	-0.85005
401.18812	1.47207
397.33055	1.47207
393.47297	9.56888
389.61539	9.56888
385.75781	0.03025
381.90023	0.02455
378.04266	0.04745
374.18508	0.04745
370.32750	0.04745
366.46992	-4.70094
362.61234	0.07668
358.75477	-0.00309
354.89719	0.71637
351.03961	4.36594
347.18203	1.45321
343.32445	0.37612
339.46687	-0.70622
335.60930	-0.70622
331.75172	-0.70622
327.89414	-0.70622
324.03656	3.38916
320.17898	2.61791
316.32141	2.61791
312.46383	2.61791
308.60625	2.45253
304.74867	1.42910
300.89109	1.42910
