14998.26375	0.10464
14994.40617	0.09342
14990.54859	0.05471
14986.69102	0.03490
14982.83344	0.13733
14978.97586	0.07189
14975.11828	-0.04047
14971.26070	0.02265
14967.40312	0.04374
14963.54555	0.05434
14959.68797	0.10443
14955.83039	0.12169
14951.97281	0.11574
14948.11523	0.05357
14944.25766	-0.03813
14940.40008	-0.07245
14936.54250	-0.04108
14932.68492	0.01659
14928.82734	0.01870
14924.96977	-0.02118
14921.11219	0.03631
14917.25461	0.11448
14913.39703	-0.02625
14909.53945	-0.12621
14905.68187	-0.01442
14901.82430	0.03685
14897.96672	-0.01696
14894.10914	0.01890
14890.25156	0.12530
14886.39398	0.13824
14882.53641	0.11275
14878.67883	0.19967
14874.82125	0.24117
14870.96367	0.12137
14867.10609	-0.06151
14863.24852	-0.06721
14859.39094	0.08033
14855.53336	0.04631
14851.67578	-0.03267
14847.81820	-0.05599
14843.96062	-0.03557
14840.10305	-0.03532
14836.24547	-0.03376
14832.38789	-0.06596
14828.53031	-0.18669
14824.67273	-0.30067
14820.81516	-0.33541
14816.95758	-0.27937
14813.10000	-0.18603
14809.24242	0.08521
14805.38484	0.10230
14801.52727	0.10838
14797.66969	0.19430
14793.81211	0.08082
14789.95453	-0.01963
14786.09695	0.06976
14782.23937	0.15730
14778.38180	0.17486
14774.52422	-0.05648
14770.66664	-0.15341
14766.80906	0.13180
14762.95148	0.25635
14759.09391	0.11833
14755.23633	0.06549
14751.37875	0.11526
14747.52117	0.08641
14743.66359	0.07340
14739.80602	0.13939
14735.94844	0.16251
14732.09086	0.04365
14728.23328	-0.00087
14724.37570	0.04611
14720.51812	-0.00057
14716.66055	0.01476
14712.80297	0.13783
14708.94539	0.06295
14705.08781	-0.05407
14701.23023	-0.05289
14697.37266	-0.01492
14693.51508	0.06294
14689.65750	0.15131
14685.79992	0.16722
14681.94234	0.15332
14678.08477	0.16556
14674.22719	0.15464
14670.36961	-0.00847
14666.51203	-0.02767
14662.65445	-0.00327
14658.79687	0.04966
14654.93930	0.08409
14651.08172	0.03142
14647.22414	0.04820
14643.36656	-0.00357
14639.50898	-0.02641
14635.65141	0.01693
14631.79383	0.10242
14627.93625	0.16868
14624.07867	0.13207
14620.22109	0.05014
14616.36352	-0.00442
14612.50594	-0.01089
14608.64836	0.03841
14604.79078	0.02155
14600.93320	-0.02900
14597.07562	0.03607
14593.21805	0.05438
14589.36047	-0.01979
14585.50289	-0.03445
14581.64531	0.03522
14577.78773	0.11267
14573.93016	0.16442
14570.07258	0.15835
14566.21500	0.08560
14562.35742	0.03169
14558.49984	-0.02842
14554.64227	-0.05817
14550.78469	-0.03331
14546.92711	0.14065
14543.06953	0.22228
14539.21195	0.07284
14535.35437	-0.04211
14531.49680	0.00621
14527.63922	0.04906
14523.78164	0.09529
14519.92406	0.11132
14516.06648	0.07261
14512.20891	0.04262
14508.35133	0.01668
14504.49375	-0.00073
14500.63617	-0.01253
14496.77859	0.03857
14492.92102	0.07958
14489.06344	-0.00305
14485.20586	-0.02550
14481.34828	0.03936
14477.49070	0.06718
14473.63312	0.06224
14469.77555	0.02548
14465.91797	0.04480
14462.06039	0.13744
14458.20281	0.16451
14454.34523	0.13976
14450.48766	0.10652
14446.63008	0.06881
14442.77250	0.06280
14438.91492	0.06487
14435.05734	0.02913
14431.19977	-0.02356
14427.34219	-0.01508
14423.48461	0.02425
14419.62703	0.03948
14415.76945	0.07790
14411.91187	0.11124
14408.05430	0.06503
14404.19672	0.02868
14400.33914	0.05697
14396.48156	0.08457
14392.62398	0.10568
14388.76641	0.09335
14384.90883	0.06047
14381.05125	0.05983
14377.19367	0.04664
14373.33609	0.02161
14369.47852	0.05471
14365.62094	0.07196
14361.76336	0.06633
14357.90578	0.03410
14354.04820	-0.02849
14350.19062	-0.07924
14346.33305	-0.11412
14342.47547	-0.10375
14338.61789	-0.06992
14334.76031	-0.05323
14330.90273	-0.08266
14327.04516	-0.07111
14323.18758	-0.01841
14319.33000	-0.02229
14315.47242	-0.05761
14311.61484	0.05939
14307.75727	0.06241
14303.89969	-0.09296
14300.04211	-0.06313
14296.18453	0.00676
14292.32695	0.02522
14288.46937	0.01596
14284.61180	0.04824
14280.75422	0.08270
14276.89664	0.08648
14273.03906	0.09563
14269.18148	0.10158
14265.32391	0.04627
14261.46633	0.00538
14257.60875	0.01039
14253.75117	-0.00187
14249.89359	0.01268
14246.03602	0.10286
14242.17844	0.15835
14238.32086	0.08976
14234.46328	0.00999
14230.60570	-0.00924
14226.74812	-0.02353
14222.89055	-0.05439
14219.03297	-0.06543
14215.17539	-0.04608
14211.31781	-0.01693
14207.46023	0.09043
14203.60266	0.14389
14199.74508	0.11362
14195.88750	0.06410
14192.02992	0.00112
14188.17234	-0.01175
14184.31477	0.07046
14180.45719	0.07811
14176.59961	-0.02466
14172.74203	-0.03723
14168.88445	-0.03979
14165.02687	-0.06407
14161.16930	-0.07114
14157.31172	-0.07395
14153.45414	-0.06399
14149.59656	-0.03207
14145.73898	0.02156
14141.88141	0.02893
14138.02383	0.05061
14134.16625	0.10629
14130.30867	0.08243
14126.45109	0.05130
14122.59352	0.09950
14118.73594	0.09958
14114.87836	0.02787
14111.02078	0.00430
14107.16320	0.02202
14103.30562	0.01870
14099.44805	0.00293
14095.59047	-0.00064
14091.73289	-0.04279
14087.87531	-0.04847
14084.01773	0.00231
14080.16016	-0.01046
14076.30258	-0.05267
14072.44500	-0.02598
14068.58742	-0.05556
14064.72984	-0.11274
14060.87227	-0.05060
14057.01469	-0.00185
14053.15711	-0.01968
14049.29953	-0.00319
14045.44195	0.02750
14041.58437	0.05120
14037.72680	0.07431
14033.86922	0.04600
14030.01164	0.01520
14026.15406	0.03271
14022.29648	0.02581
14018.43891	-0.00052
14014.58133	0.02881
14010.72375	0.09500
14006.86617	0.07409
14003.00859	-0.02698
13999.15102	0.00724
13995.29344	0.03175
13991.43586	0.01533
13987.57828	0.03568
13983.72070	0.06558
13979.86312	0.09773
13976.00555	0.06875
13972.14797	0.02766
13968.29039	0.02963
13964.43281	0.00917
13960.57523	-0.01584
13956.71766	-0.03795
13952.86008	-0.05704
13949.00250	-0.06534
13945.14492	-0.05344
13941.28734	-0.01802
13937.42977	0.00117
13933.57219	-0.00249
13929.71461	-0.01228
13925.85703	0.02905
13921.99945	0.04937
13918.14187	-0.02555
13914.28430	-0.05615
13910.42672	-0.00850
13906.56914	-0.00375
13902.71156	-0.02839
13898.85398	-0.03629
13894.99641	-0.07331
13891.13883	-0.07054
13887.28125	0.00449
13883.42367	0.01579
13879.56609	-0.02421
13875.70852	0.01190
13871.85094	0.00284
13867.99336	0.01836
13864.13578	0.03455
13860.27820	0.03459
13856.42062	0.02698
13852.56305	0.01235
13848.70547	0.01053
13844.84789	0.03249
13840.99031	0.01547
13837.13273	-0.03936
13833.27516	-0.05551
13829.41758	-0.00784
13825.56000	0.01322
13821.70242	-0.00491
13817.84484	-0.01023
13813.98727	0.00245
13810.12969	0.01821
13806.27211	0.01608
13802.41453	-0.01436
13798.55695	0.01089
13794.69937	0.04476
13790.84180	0.00858
13786.98422	0.00002
13783.12664	0.02633
13779.26906	0.00265
13775.41148	-0.00864
13771.55391	0.03002
13767.69633	0.02755
13763.83875	-0.00458
13759.98117	-0.00587
13756.12359	0.00163
13752.26602	0.00453
13748.40844	0.00170
13744.55086	-0.01824
13740.69328	-0.00444
13736.83570	0.04825
13732.97812	0.06614
13729.12055	0.06008
13725.26297	0.08519
13721.40539	0.08446
13717.54781	0.05961
13713.69023	0.05322
13709.83266	0.01988
13705.97508	-0.02225
13702.11750	-0.02594
13698.25992	0.00254
13694.40234	0.05275
13690.54477	0.06080
13686.68719	0.00361
13682.82961	-0.05202
13678.97203	-0.01349
13675.11445	0.02287
13671.25687	0.03571
13667.39930	0.06600
13663.54172	0.06887
13659.68414	0.02601
13655.82656	0.01381
13651.96898	0.04978
13648.11141	0.06173
13644.25383	0.01053
13640.39625	-0.02609
13636.53867	0.01379
13632.68109	0.04628
13628.82352	0.01452
13624.96594	-0.00923
13621.10836	-0.01063
13617.25078	-0.02133
13613.39320	-0.03007
13609.53562	-0.00717
13605.67805	0.05745
13601.82047	0.07124
13597.96289	0.04439
13594.10531	0.01328
13590.24773	-0.03068
13586.39016	-0.01287
13582.53258	0.04286
13578.67500	0.06019
13574.81742	0.04749
13570.95984	0.01497
13567.10227	-0.00647
13563.24469	0.00290
13559.38711	-0.00239
13555.52953	-0.00151
13551.67195	0.00501
13547.81437	0.00694
13543.95680	0.03812
13540.09922	0.07405
13536.24164	0.05407
13532.38406	0.00917
13528.52648	0.00478
13524.66891	0.01396
13520.81133	0.00655
13516.95375	0.01027
13513.09617	0.02230
13509.23859	0.03514
13505.38102	0.03429
13501.52344	0.00879
13497.66586	0.00910
13493.80828	0.01479
13489.95070	-0.01743
13486.09312	-0.00115
13482.23555	0.06758
13478.37797	0.07456
13474.52039	0.02415
13470.66281	-0.00858
13466.80523	-0.00904
13462.94766	0.01825
13459.09008	0.03461
13455.23250	0.01544
13451.37492	-0.00501
13447.51734	-0.00695
13443.65977	0.00247
13439.80219	0.01647
13435.94461	0.00141
13432.08703	0.00655
13428.22945	0.05285
13424.37187	0.06894
13420.51430	0.03629
13416.65672	0.00789
13412.79914	0.01409
13408.94156	0.02126
13405.08398	-0.00191
13401.22641	-0.01154
13397.36883	0.01385
13393.51125	0.03330
13389.65367	0.03035
13385.79609	0.01344
13381.93852	-0.00408
13378.08094	-0.00442
13374.22336	0.00435
13370.36578	0.00114
13366.50820	-0.00719
13362.65062	-0.00548
13358.79305	0.00739
13354.93547	0.00050
13351.07789	-0.00554
13347.22031	0.00270
13343.36273	-0.00914
13339.50516	-0.00789
13335.64758	0.04823
13331.79000	0.08341
13327.93242	0.04543
13324.07484	0.00091
13320.21727	0.00014
13316.35969	0.03105
13312.50211	0.05241
13308.64453	0.02722
13304.78695	-0.00505
13300.92937	-0.01801
13297.07180	-0.00881
13293.21422	0.03018
13289.35664	0.05364
13285.49906	0.03713
13281.64148	0.01535
13277.78391	0.00343
13273.92633	0.00858
13270.06875	0.03091
13266.21117	0.03956
13262.35359	0.02745
13258.49602	0.01580
13254.63844	0.01654
13250.78086	0.01407
13246.92328	-0.01200
13243.06570	-0.03249
13239.20812	-0.00097
13235.35055	0.04701
13231.49297	0.05223
13227.63539	0.03659
13223.77781	0.01904
13219.92023	-0.01425
13216.06266	-0.02910
13212.20508	-0.00422
13208.34750	0.03444
13204.48992	0.04900
13200.63234	0.04650
13196.77477	0.03369
13192.91719	0.02407
13189.05961	-0.02473
13185.20203	-0.01425
13181.34445	0.01982
13177.48687	-0.02260
13173.62930	-0.01468
13169.77172	-0.01835
13165.91414	-0.05604
13162.05656	-0.05647
13158.19898	-0.03703
13154.34141	-0.00765
13150.48383	0.01737
13146.62625	0.02749
13142.76867	0.01915
13138.91109	0.00283
13135.05352	0.01604
13131.19594	0.02282
13127.33836	0.01058
13123.48078	0.01618
13119.62320	0.02289
13115.76562	0.01146
13111.90805	0.00220
13108.05047	-0.00048
13104.19289	0.00486
13100.33531	0.01845
13096.47773	0.02756
13092.62016	0.03953
13088.76258	0.05026
13084.90500	0.02412
13081.04742	-0.01493
13077.18984	-0.00533
13073.33227	0.02792
13069.47469	0.03268
13065.61711	0.02723
13061.75953	0.04139
13057.90195	0.05287
13054.04437	0.03606
13050.18680	-0.00695
13046.32922	-0.03170
13042.47164	-0.01654
13038.61406	0.03300
13034.75648	0.01979
13030.89891	-0.00090
13027.04133	0.00349
13023.18375	0.02092
13019.32617	0.03382
13015.46859	0.02900
13011.61102	0.01655
13007.75344	0.02032
13003.89586	0.02560
13000.03828	0.01857
12996.18070	0.00535
12992.32312	-0.00539
12988.46555	-0.03846
12984.60797	-0.01059
12980.75039	0.01145
12976.89281	-0.00651
12973.03523	0.02290
12969.17766	0.06142
12965.32008	0.05690
12961.46250	0.01394
12957.60492	-0.02452
12953.74734	0.01024
12949.88977	0.05801
12946.03219	0.04122
12942.17461	0.01221
12938.31703	0.01274
12934.45945	0.04361
12930.60187	0.04024
12926.74430	-0.01308
12922.88672	-0.00716
12919.02914	0.04999
12915.17156	0.04261
12911.31398	-0.00145
12907.45641	0.00019
12903.59883	0.02747
12899.74125	0.04431
12895.88367	0.06250
12892.02609	0.05730
12888.16852	0.02193
12884.31094	-0.00598
12880.45336	-0.01376
12876.59578	0.00910
12872.73820	0.03830
12868.88062	0.02310
12865.02305	-0.00932
12861.16547	-0.02944
12857.30789	-0.02626
12853.45031	0.00135
12849.59273	0.03570
12845.73516	0.02683
12841.87758	0.00023
12838.02000	-0.01430
12834.16242	0.00211
12830.30484	0.04154
12826.44727	0.04813
12822.58969	0.02455
12818.73211	0.01322
12814.87453	0.00229
12811.01695	-0.00610
12807.15937	0.00867
12803.30180	0.01885
12799.44422	0.00285
12795.58664	-0.01215
12791.72906	-0.00021
12787.87148	0.02534
12784.01391	0.02658
12780.15633	0.01731
12776.29875	0.00440
12772.44117	-0.00123
12768.58359	0.02447
12764.72602	0.03667
12760.86844	0.01710
12757.01086	0.00862
12753.15328	0.01186
12749.29570	0.01738
12745.43812	0.02874
12741.58055	0.03226
12737.72297	0.00736
12733.86539	-0.01509
12730.00781	0.00146
12726.15023	0.04850
12722.29266	0.05738
12718.43508	0.01348
12714.57750	-0.01214
12710.71992	-0.00562
12706.86234	0.01940
12703.00477	0.02271
12699.14719	-0.01638
12695.28961	-0.00258
12691.43203	0.03208
12687.57445	0.02991
12683.71687	0.01471
12679.85930	0.00261
12676.00172	0.00029
12672.14414	0.01040
12668.28656	0.00841
12664.42898	0.00298
12660.57141	0.00574
12656.71383	0.01498
12652.85625	0.01766
12648.99867	-0.00324
12645.14109	-0.00737
12641.28352	-0.00522
12637.42594	-0.00978
12633.56836	0.01062
12629.71078	0.04054
12625.85320	0.03273
12621.99562	-0.00022
12618.13805	-0.01283
12614.28047	-0.01260
12610.42289	0.00094
12606.56531	0.01805
12602.70773	0.02786
12598.85016	0.02107
12594.99258	0.00640
12591.13500	-0.00090
12587.27742	0.01349
12583.41984	0.02811
12579.56227	0.02217
12575.70469	0.01183
12571.84711	0.01089
12567.98953	-0.01027
12564.13195	-0.00598
12560.27437	0.03777
12556.41680	0.04131
12552.55922	0.04132
12548.70164	0.03844
12544.84406	0.01493
12540.98648	-0.01103
12537.12891	-0.00482
12533.27133	0.03457
12529.41375	0.06554
12525.55617	0.05704
12521.69859	0.01872
12517.84102	-0.01673
12513.98344	-0.01886
12510.12586	-0.00322
12506.26828	-0.00173
12502.41070	-0.00320
12498.55312	0.00948
12494.69555	0.01593
12490.83797	0.00998
12486.98039	0.01513
12483.12281	0.03013
12479.26523	0.03065
12475.40766	0.01430
12471.55008	0.00864
12467.69250	0.02212
12463.83492	0.03422
12459.97734	0.03582
12456.11977	0.02652
12452.26219	0.00867
12448.40461	-0.00050
12444.54703	0.00418
12440.68945	0.01291
12436.83187	0.02391
12432.97430	0.01112
12429.11672	-0.01096
12425.25914	-0.00071
12421.40156	0.03372
12417.54398	0.04690
12413.68641	0.00436
12409.82883	-0.01107
12405.97125	0.02384
12402.11367	0.02704
12398.25609	0.01356
12394.39852	0.00466
12390.54094	0.00576
12386.68336	0.02427
12382.82578	0.02644
12378.96820	0.01889
12375.11062	0.01577
12371.25305	0.00119
12367.39547	-0.01730
12363.53789	-0.02970
12359.68031	-0.02087
12355.82273	0.00648
12351.96516	0.01249
12348.10758	-0.01265
12344.25000	-0.02331
12340.39242	-0.00419
12336.53484	-0.00980
12332.67727	0.00956
12328.81969	0.03674
12324.96211	0.02892
12321.10453	0.03350
12317.24695	0.04108
12313.38937	0.02468
12309.53180	0.00951
12305.67422	0.00930
12301.81664	0.00679
12297.95906	0.00734
12294.10148	0.01561
12290.24391	0.01569
12286.38633	0.00906
12282.52875	0.00764
12278.67117	0.00062
12274.81359	-0.01177
12270.95602	-0.01061
12267.09844	-0.00600
12263.24086	-0.00210
12259.38328	0.01341
12255.52570	0.02050
12251.66812	0.02084
12247.81055	0.03163
12243.95297	0.02612
12240.09539	0.00435
12236.23781	-0.00578
12232.38023	-0.00685
12228.52266	0.00414
12224.66508	0.01548
12220.80750	0.01862
12216.94992	0.02551
12213.09234	0.01818
12209.23477	-0.00191
12205.37719	0.00498
12201.51961	0.02811
12197.66203	0.02514
12193.80445	0.00460
12189.94687	-0.00341
12186.08930	0.00026
12182.23172	0.01471
12178.37414	0.02614
12174.51656	0.00406
12170.65898	-0.02041
12166.80141	-0.00537
12162.94383	0.02866
12159.08625	0.04017
12155.22867	0.03451
12151.37109	0.03111
12147.51352	0.02166
12143.65594	0.00046
12139.79836	-0.01370
12135.94078	-0.00157
12132.08320	0.01631
12128.22562	0.00571
12124.36805	-0.00656
12120.51047	0.02337
12116.65289	0.04362
12112.79531	0.01878
12108.93773	-0.01164
12105.08016	-0.00973
12101.22258	-0.00504
12097.36500	0.01637
12093.50742	0.02376
12089.64984	0.01661
12085.79227	0.01633
12081.93469	0.03719
12078.07711	0.03558
12074.21953	0.00616
12070.36195	0.00297
12066.50437	0.01760
12062.64680	0.01019
12058.78922	0.00280
12054.93164	0.00822
12051.07406	0.01835
12047.21648	0.01626
12043.35891	0.00459
12039.50133	0.00005
12035.64375	0.00038
12031.78617	0.00088
12027.92859	0.01047
12024.07102	0.02005
12020.21344	0.01209
12016.35586	-0.00000
12012.49828	0.00140
12008.64070	-0.00092
12004.78312	-0.00608
12000.92555	0.00755
11997.06797	0.01655
11993.21039	0.00624
11989.35281	0.00084
11985.49523	0.00749
11981.63766	0.00671
11977.78008	-0.00650
11973.92250	0.00086
11970.06492	0.02434
11966.20734	0.02717
11962.34977	0.01476
11958.49219	-0.00359
11954.63461	-0.01078
11950.77703	-0.00832
11946.91945	-0.00372
11943.06187	-0.00563
11939.20430	-0.00714
11935.34672	-0.00550
11931.48914	-0.00110
11927.63156	0.00288
11923.77398	0.00883
11919.91641	0.01739
11916.05883	0.02146
11912.20125	0.01658
11908.34367	-0.00634
11904.48609	0.01376
11900.62852	0.00535
11896.77094	-0.02324
11892.91336	0.00967
11889.05578	0.00619
11885.19820	0.01045
11881.34062	0.00827
11877.48305	0.00282
11873.62547	0.01231
11869.76789	0.02165
11865.91031	0.00872
11862.05273	-0.00384
11858.19516	-0.01552
11854.33758	-0.02062
11850.48000	-0.02246
11846.62242	-0.02158
11842.76484	-0.01477
11838.90727	-0.00150
11835.04969	0.00971
11831.19211	0.01786
11827.33453	0.01437
11823.47695	0.01933
11819.61937	0.02722
11815.76180	0.00707
11811.90422	-0.00787
11808.04664	-0.00413
11804.18906	0.00073
11800.33148	0.01708
11796.47391	0.02176
11792.61633	0.00191
11788.75875	-0.00681
11784.90117	-0.00176
11781.04359	-0.00221
11777.18602	0.01064
11773.32844	0.03314
11769.47086	0.03272
11765.61328	0.02101
11761.75570	0.01257
11757.89812	0.00778
11754.04055	0.00650
11750.18297	0.00473
11746.32539	-0.00011
11742.46781	-0.00570
11738.61023	-0.00508
11734.75266	0.01173
11730.89508	0.02649
11727.03750	0.01855
11723.17992	-0.00031
11719.32234	-0.00728
11715.46477	-0.01268
11711.60719	-0.00402
11707.74961	0.01715
11703.89203	0.00979
11700.03445	-0.00946
11696.17687	-0.01136
11692.31930	0.00336
11688.46172	0.01239
11684.60414	0.01226
11680.74656	0.01532
11676.88898	0.00777
11673.03141	-0.00527
11669.17383	0.00632
11665.31625	0.02323
11661.45867	0.01743
11657.60109	0.00473
11653.74352	-0.00388
11649.88594	-0.00807
11646.02836	-0.00064
11642.17078	0.00824
11638.31320	0.00321
11634.45562	-0.00729
11630.59805	-0.00179
11626.74047	0.01034
11622.88289	0.00006
11619.02531	-0.00481
11615.16773	-0.00258
11611.31016	-0.00585
11607.45258	-0.00885
11603.59500	-0.00801
11599.73742	-0.00835
11595.87984	-0.01137
11592.02227	-0.00532
11588.16469	0.00637
11584.30711	0.00829
11580.44953	0.00375
11576.59195	0.01537
11572.73437	0.01381
11568.87680	0.00140
11565.01922	0.00785
11561.16164	0.01115
11557.30406	0.00357
11553.44648	0.00214
11549.58891	-0.00672
11545.73133	0.00239
11541.87375	0.02535
11538.01617	0.01391
11534.15859	-0.00018
11530.30102	0.00605
11526.44344	0.00607
11522.58586	0.00278
11518.72828	0.01206
11514.87070	0.01233
11511.01312	-0.00353
11507.15555	-0.00479
11503.29797	0.00765
11499.44039	0.00720
11495.58281	0.00716
11491.72523	0.01508
11487.86766	0.00702
11484.01008	-0.00714
11480.15250	-0.00333
11476.29492	-0.00026
11472.43734	-0.00070
11468.57977	-0.00055
11464.72219	0.00420
11460.86461	0.00754
11457.00703	-0.00259
11453.14945	-0.00338
11449.29187	0.00971
11445.43430	0.01318
11441.57672	0.00811
11437.71914	0.01169
11433.86156	0.00562
11430.00398	-0.01122
11426.14641	-0.00174
11422.28883	0.01224
11418.43125	0.01233
11414.57367	0.01359
11410.71609	0.01789
11406.85852	0.01640
11403.00094	0.00900
11399.14336	0.00313
11395.28578	0.00300
11391.42820	0.00574
11387.57062	0.00668
11383.71305	0.00368
11379.85547	0.00858
11375.99789	0.00947
11372.14031	0.00764
11368.28273	0.00658
11364.42516	0.00463
11360.56758	0.00326
11356.71000	0.00414
11352.85242	0.00873
11348.99484	0.01535
11345.13727	0.01347
11341.27969	0.00242
11337.42211	-0.00843
11333.56453	-0.00971
11329.70695	-0.00411
11325.84937	0.00403
11321.99180	0.01581
11318.13422	0.01374
11314.27664	-0.00286
11310.41906	-0.00561
11306.56148	0.00405
11302.70391	0.00614
11298.84633	0.00448
11294.98875	0.00655
11291.13117	0.00234
11287.27359	-0.00216
11283.41602	0.00438
11279.55844	0.01119
11275.70086	0.00824
11271.84328	-0.00232
11267.98570	-0.00902
11264.12812	-0.00282
11260.27055	0.00622
11256.41297	0.01346
11252.55539	0.01567
11248.69781	0.00963
11244.84023	0.00613
11240.98266	0.00395
11237.12508	0.00206
11233.26750	0.00103
11229.40992	-0.00095
11225.55234	-0.00208
11221.69477	0.00145
11217.83719	0.00554
11213.97961	0.00148
11210.12203	-0.00106
11206.26445	0.00668
11202.40687	0.01608
11198.54930	0.01640
11194.69172	0.00787
11190.83414	-0.00158
11186.97656	-0.00418
11183.11898	-0.00337
11179.26141	-0.00455
11175.40383	-0.00223
11171.54625	-0.00043
11167.68867	-0.00291
11163.83109	-0.00671
11159.97352	-0.01279
11156.11594	-0.01861
11152.25836	-0.01743
11148.40078	-0.01000
11144.54320	-0.00161
11140.68562	0.00272
11136.82805	0.00809
11132.97047	0.00976
11129.11289	0.01734
11125.25531	0.01692
11121.39773	0.00071
11117.54016	-0.00717
11113.68258	0.00142
11109.82500	0.01153
11105.96742	0.01367
11102.10984	0.00934
11098.25227	0.00834
11094.39469	0.01080
11090.53711	0.00548
11086.67953	-0.00610
11082.82195	-0.01012
11078.96437	-0.00228
11075.10680	0.00361
11071.24922	0.00066
11067.39164	-0.00630
11063.53406	-0.00859
11059.67648	-0.00522
11055.81891	-0.00329
11051.96133	0.00191
11048.10375	0.00194
11044.24617	-0.00079
11040.38859	0.00057
11036.53102	0.00536
11032.67344	0.00713
11028.81586	0.00408
11024.95828	0.00235
11021.10070	-0.00184
11017.24312	0.00028
11013.38555	0.00122
11009.52797	-0.00616
11005.67039	0.00049
11001.81281	0.01353
10997.95523	0.00805
10994.09766	-0.00074
10990.24008	-0.00143
10986.38250	-0.00229
10982.52492	-0.00137
10978.66734	0.00163
10974.80977	0.00242
10970.95219	0.00379
10967.09461	0.00323
10963.23703	-0.00484
10959.37945	0.00070
10955.52187	0.00467
10951.66430	-0.00033
10947.80672	-0.00350
10943.94914	-0.00314
10940.09156	0.00383
10936.23398	0.01373
10932.37641	0.01595
10928.51883	0.00764
10924.66125	0.00074
10920.80367	0.00333
10916.94609	0.00552
10913.08852	0.00127
10909.23094	-0.00205
10905.37336	-0.00281
10901.51578	-0.00253
10897.65820	-0.00059
10893.80062	-0.00052
10889.94305	-0.00112
10886.08547	-0.00582
10882.22789	-0.00289
10878.37031	0.01152
10874.51273	0.00716
10870.65516	0.00203
10866.79758	0.00226
10862.94000	0.00165
10859.08242	0.00422
10855.22484	0.01149
10851.36727	0.01214
10847.50969	0.00761
10843.65211	0.00528
10839.79453	0.00443
10835.93695	0.00113
10832.07937	-0.00311
10828.22180	-0.00573
10824.36422	-0.00590
10820.50664	-0.00177
10816.64906	0.00290
10812.79148	0.00388
10808.93391	0.00656
10805.07633	0.00966
10801.21875	0.00998
10797.36117	0.00324
10793.50359	-0.00102
10789.64602	0.00009
10785.78844	0.00577
10781.93086	0.01122
10778.07328	0.00620
10774.21570	0.00227
10770.35812	0.00093
10766.50055	-0.00356
10762.64297	-0.00390
10758.78539	0.00376
10754.92781	0.01312
10751.07023	0.01321
10747.21266	0.00816
10743.35508	0.00668
10739.49750	0.00650
10735.63992	0.00307
10731.78234	0.00039
10727.92477	0.00274
10724.06719	0.00667
10720.20961	0.00585
10716.35203	0.00299
10712.49445	0.00215
10708.63687	0.00147
10704.77930	0.00354
10700.92172	0.00527
10697.06414	0.00414
10693.20656	0.00569
10689.34898	0.00383
10685.49141	0.00052
10681.63383	0.00721
10677.77625	0.01202
10673.91867	0.00542
10670.06109	0.00031
10666.20352	0.00281
10662.34594	0.00597
10658.48836	0.00505
10654.63078	0.00183
10650.77320	0.00000
10646.91562	-0.00106
10643.05805	0.00042
10639.20047	0.00717
10635.34289	0.00856
10631.48531	-0.00082
10627.62773	-0.00608
10623.77016	0.00203
10619.91258	0.00745
10616.05500	0.00546
10612.19742	0.00359
10608.33984	0.00411
10604.48227	0.00363
10600.62469	-0.00130
10596.76711	-0.00414
10592.90953	0.00159
10589.05195	0.00891
10585.19437	0.01001
10581.33680	0.00895
10577.47922	0.00752
10573.62164	0.00316
10569.76406	0.00052
10565.90648	0.00383
10562.04891	0.00572
10558.19133	0.00241
10554.33375	-0.00230
10550.47617	-0.00278
10546.61859	0.00323
10542.76102	0.00538
10538.90344	0.00460
10535.04586	0.00946
10531.18828	0.01037
10527.33070	0.00258
10523.47312	-0.00044
10519.61555	0.00362
10515.75797	0.00418
10511.90039	0.00308
10508.04281	0.00631
10504.18523	0.00741
10500.32766	0.00367
10496.47008	-0.00344
10492.61250	-0.00840
10488.75492	-0.00709
10484.89734	-0.00221
10481.03977	0.00012
10477.18219	0.00123
10473.32461	0.00374
10469.46703	0.00504
10465.60945	0.00727
10461.75187	0.00955
10457.89430	0.00745
10454.03672	0.00553
10450.17914	0.00731
10446.32156	0.00710
10442.46398	0.00445
10438.60641	0.00453
10434.74883	0.00517
10430.89125	0.00307
10427.03367	0.00146
10423.17609	0.00282
10419.31852	0.00545
10415.46094	0.00701
10411.60336	0.00109
10407.74578	-0.00186
10403.88820	0.00222
10400.03062	-0.00000
10396.17305	0.00155
10392.31547	0.00508
10388.45789	0.00422
10384.60031	0.00363
10380.74273	0.00603
10376.88516	0.00382
10373.02758	-0.00088
10369.17000	0.00290
10365.31242	0.00652
10361.45484	0.00451
10357.59727	-0.00253
10353.73969	-0.00659
10349.88211	-0.00204
10346.02453	0.00677
10342.16695	0.01177
10338.30937	0.01062
10334.45180	0.00190
10330.59422	-0.00198
10326.73664	0.00290
10322.87906	0.00705
10319.02148	0.00353
10315.16391	0.00209
10311.30633	0.00192
10307.44875	-0.00172
10303.59117	-0.00339
10299.73359	-0.00175
10295.87602	0.00384
10292.01844	0.00964
10288.16086	0.00796
10284.30328	0.00202
10280.44570	0.00038
10276.58812	0.00215
10272.73055	0.00269
10268.87297	0.00352
10265.01539	0.00541
10261.15781	0.00515
10257.30023	0.00419
10253.44266	0.00538
10249.58508	0.00487
10245.72750	0.00175
10241.86992	0.00022
10238.01234	0.00095
10234.15477	0.00406
10230.29719	0.00686
10226.43961	0.00628
10222.58203	0.00395
10218.72445	0.00190
10214.86687	0.00049
10211.00930	-0.00507
10207.15172	0.00283
10203.29414	-0.00034
10199.43656	-0.00333
10195.57898	-0.00573
10191.72141	-0.00215
10187.86383	0.00646
10184.00625	0.00163
10180.14867	-0.00383
10176.29109	-0.00344
10172.43352	0.00266
10168.57594	0.00329
10164.71836	0.00105
10160.86078	0.00472
10157.00320	0.00701
10153.14562	0.00495
10149.28805	0.00312
10145.43047	0.00061
10141.57289	-0.00107
10137.71531	-0.00117
10133.85773	-0.00251
10130.00016	-0.00298
10126.14258	0.00050
10122.28500	0.00466
10118.42742	0.00297
10114.56984	-0.00327
10110.71227	-0.00372
10106.85469	0.00266
10102.99711	0.00723
10099.13953	0.00512
10095.28195	0.00104
10091.42437	0.00154
10087.56680	0.00366
10083.70922	0.00152
10079.85164	-0.00087
10075.99406	0.00063
10072.13648	0.00253
10068.27891	0.00186
10064.42133	0.00298
10060.56375	0.00545
10056.70617	0.00506
10052.84859	0.00419
10048.99102	0.00191
10045.13344	-0.00133
10041.27586	-0.00168
10037.41828	-0.00115
10033.56070	-0.00147
10029.70312	0.00089
10025.84555	0.00734
10021.98797	0.01131
10018.13039	0.00914
10014.27281	0.00506
10010.41523	0.00418
10006.55766	0.00442
10002.70008	0.00225
9998.84250	0.00000
9994.98492	-0.00085
9991.12734	-0.00204
9987.26977	-0.00178
9983.41219	0.00078
9979.55461	0.00263
9975.69703	0.00368
9971.83945	0.00529
9967.98187	0.00475
9964.12430	0.00144
9960.26672	-0.00028
9956.40914	0.00146
9952.55156	0.00257
9948.69398	-0.00131
9944.83641	-0.00110
9940.97883	0.00077
9937.12125	0.00034
9933.26367	-0.00114
9929.40609	-0.00145
9925.54852	0.00447
9921.69094	0.00069
9917.83336	0.00032
9913.97578	0.00362
9910.11820	0.00303
9906.26062	-0.00102
9902.40305	-0.00231
9898.54547	-0.00163
9894.68789	-0.00050
9890.83031	-0.00006
9886.97273	0.00093
9883.11516	0.00272
9879.25758	0.00236
9875.40000	-0.00125
9871.54242	-0.00268
9867.68484	0.00109
9863.82727	0.00368
9859.96969	0.00364
9856.11211	0.00611
9852.25453	0.00722
9848.39695	0.00308
9844.53937	-0.00055
9840.68180	-0.00176
9836.82422	-0.00145
9832.96664	0.00277
9829.10906	0.00645
9825.25148	0.00263
9821.39391	-0.00221
9817.53633	0.00139
9813.67875	0.00818
9809.82117	0.00859
9805.96359	0.00447
9802.10602	0.00094
9798.24844	-0.00093
9794.39086	0.00147
9790.53328	0.00440
9786.67570	0.00245
9782.81812	0.00074
9778.96055	0.00047
9775.10297	-0.00317
9771.24539	0.00069
9767.38781	0.00495
9763.53023	0.00372
9759.67266	0.00116
9755.81508	-0.00210
9751.95750	-0.00301
9748.09992	-0.00146
9744.24234	-0.00080
9740.38477	-0.00023
9736.52719	0.00202
9732.66961	0.00209
9728.81203	-0.00058
9724.95445	0.00035
9721.09687	0.00207
9717.23930	0.00156
9713.38172	0.00274
9709.52414	0.00489
9705.66656	0.00320
9701.80898	0.00073
9697.95141	0.00274
9694.09383	0.00516
9690.23625	0.00413
9686.37867	0.00420
9682.52109	0.00575
9678.66352	0.00396
9674.80594	0.00008
9670.94836	-0.00083
9667.09078	0.00075
9663.23320	0.00144
9659.37562	0.00052
9655.51805	-0.00069
9651.66047	0.00105
9647.80289	0.00290
9643.94531	0.00043
9640.08773	-0.00161
9636.23016	0.00091
9632.37258	0.00223
9628.51500	0.00063
9624.65742	0.00219
9620.79984	0.00439
9616.94227	0.00251
9613.08469	0.00184
9609.22711	0.00390
9605.36953	0.00341
9601.51195	0.00190
9597.65437	0.00277
9593.79680	0.00336
9589.93922	0.00120
9586.08164	0.00091
9582.22406	0.00366
9578.36648	0.00266
9574.50891	-0.00080
9570.65133	-0.00124
9566.79375	0.00104
9562.93617	0.00438
9559.07859	0.00569
9555.22102	0.00374
9551.36344	0.00394
9547.50586	0.00567
9543.64828	0.00399
9539.79070	0.00253
9535.93312	0.00289
9532.07555	0.00287
9528.21797	0.00417
9524.36039	0.00486
9520.50281	0.00210
9516.64523	-0.00049
9512.78766	-0.00017
9508.93008	0.00061
9505.07250	0.00050
9501.21492	0.00170
9497.35734	0.00468
9493.49977	0.00540
9489.64219	0.00139
9485.78461	-0.00262
9481.92703	-0.00046
9478.06945	0.00470
9474.21187	0.00513
9470.35430	0.00266
9466.49672	0.00140
9462.63914	0.00005
9458.78156	-0.00014
9454.92398	0.00167
9451.06641	0.00367
9447.20883	0.00297
9443.35125	0.00157
9439.49367	0.00292
9435.63609	0.00372
9431.77852	0.00051
9427.92094	-0.00008
9424.06336	0.00276
9420.20578	0.00253
9416.34820	0.00080
9412.49062	0.00070
9408.63305	0.00148
9404.77547	0.00163
9400.91789	0.00253
9397.06031	0.00147
9393.20273	-0.00318
9389.34516	-0.00145
9385.48758	0.00130
9381.63000	0.00237
9377.77242	0.00312
9373.91484	0.00090
9370.05727	-0.00062
9366.19969	-0.00402
9362.34211	-0.00412
9358.48453	0.00167
9354.62695	0.00498
9350.76937	0.00338
9346.91180	0.00197
9343.05422	0.00227
9339.19664	0.00384
9335.33906	0.00354
9331.48148	0.00052
9327.62391	0.00082
9323.76633	0.00447
9319.90875	0.00452
9316.05117	0.00242
9312.19359	0.00289
9308.33602	0.00246
9304.47844	0.00018
9300.62086	0.00048
9296.76328	0.00183
9292.90570	0.00127
9289.04812	0.00133
9285.19055	0.00037
9281.33297	-0.00154
9277.47539	0.00118
9273.61781	0.00378
9269.76023	0.00133
9265.90266	-0.00025
9262.04508	0.00085
9258.18750	0.00204
9254.32992	0.00218
9250.47234	0.00076
9246.61477	0.00111
9242.75719	0.00257
9238.89961	-0.00108
9235.04203	-0.00279
9231.18445	0.00072
9227.32687	0.00324
9223.46930	0.00153
9219.61172	-0.00122
9215.75414	0.00087
9211.89656	0.00364
9208.03898	0.00209
9204.18141	-0.00116
9200.32383	-0.00179
9196.46625	0.00091
9192.60867	0.00165
9188.75109	0.00110
9184.89352	0.00024
9181.03594	-0.00004
9177.17836	-0.00034
9173.32078	-0.00081
9169.46320	-0.00003
9165.60562	0.00104
9161.74805	0.00146
9157.89047	0.00134
9154.03289	0.00059
9150.17531	-0.00001
9146.31773	0.00079
9142.46016	0.00288
9138.60258	0.00272
9134.74500	0.00086
9130.88742	0.00026
9127.02984	0.00042
9123.17227	0.00299
9119.31469	0.00382
9115.45711	-0.00036
9111.59953	-0.00033
9107.74195	0.00442
9103.88437	0.00403
9100.02680	-0.00076
9096.16922	-0.00068
9092.31164	0.00200
9088.45406	0.00158
9084.59648	0.00043
9080.73891	-0.00004
9076.88133	0.00030
9073.02375	0.00101
9069.16617	-0.00232
9065.30859	-0.00321
9061.45102	0.00237
9057.59344	0.00389
9053.73586	0.00320
9049.87828	0.00215
9046.02070	0.00007
9042.16312	-0.00207
9038.30555	-0.00226
9034.44797	0.00128
9030.59039	0.00182
9026.73281	-0.00062
9022.87523	-0.00077
9019.01766	0.00191
9015.16008	0.00301
9011.30250	0.00128
9007.44492	0.00060
9003.58734	0.00203
8999.72977	0.00246
8995.87219	0.00086
8992.01461	-0.00042
8988.15703	-0.00069
8984.29945	-0.00101
8980.44187	-0.00055
8976.58430	0.00145
8972.72672	0.00262
8968.86914	0.00182
8965.01156	0.00142
8961.15398	0.00201
8957.29641	0.00252
8953.43883	0.00281
8949.58125	0.00287
8945.72367	0.00267
8941.86609	0.00150
8938.00852	-0.00125
8934.15094	-0.00313
8930.29336	-0.00155
8926.43578	0.00193
8922.57820	0.00393
8918.72062	0.00391
8914.86305	0.00317
8911.00547	0.00147
8907.14789	-0.00055
8903.29031	-0.00029
8899.43273	0.00103
8895.57516	0.00147
8891.71758	0.00213
8887.86000	0.00286
8884.00242	0.00190
8880.14484	0.00006
8876.28727	-0.00073
8872.42969	0.00018
8868.57211	0.00259
8864.71453	0.00407
8860.85695	0.00300
8856.99937	0.00105
8853.14180	0.00028
8849.28422	0.00043
8845.42664	0.00086
8841.56906	0.00159
8837.71148	0.00187
8833.85391	0.00142
8829.99633	0.00106
8826.13875	0.00253
8822.28117	0.00446
8818.42359	-0.00347
8814.56602	-0.00571
8810.70844	0.00191
8806.85086	0.00215
8802.99328	-0.00066
8799.13570	-0.00186
8795.27812	-0.00191
8791.42055	-0.00130
8787.56297	-0.00033
8783.70539	0.00082
8779.84781	0.00150
8775.99023	0.00028
8772.13266	-0.00154
8768.27508	-0.00232
8764.41750	-0.00205
8760.55992	-0.00033
8756.70234	0.00240
8752.84477	0.00350
8748.98719	0.00247
8745.12961	0.00084
8741.27203	-0.00037
8737.41445	-0.00051
8733.55687	0.00060
8729.69930	0.00072
8725.84172	0.00230
8721.98414	0.00289
8718.12656	0.00072
8714.26898	0.00126
8710.41141	0.00195
8706.55383	0.00178
8702.69625	0.00223
8698.83867	0.00238
8694.98109	0.00249
8691.12352	0.00135
8687.26594	-0.00156
8683.40836	-0.00297
8679.55078	-0.00161
8675.69320	0.00135
8671.83562	0.00312
8667.97805	0.00199
8664.12047	0.00022
8660.26289	0.00020
8656.40531	0.00118
8652.54773	0.00241
8648.69016	0.00304
8644.83258	0.00186
8640.97500	0.00074
8637.11742	0.00156
8633.25984	0.00239
8629.40227	0.00143
8625.54469	-0.00039
8621.68711	-0.00081
8617.82953	0.00126
8613.97195	0.00309
8610.11437	0.00289
8606.25680	0.00150
8602.39922	-0.00143
8598.54164	-0.00272
8594.68406	0.00003
8590.82648	0.00142
8586.96891	-0.00105
8583.11133	-0.00163
8579.25375	0.00267
8575.39617	0.00357
8571.53859	0.00113
8567.68102	-0.00039
8563.82344	0.00070
8559.96586	0.00164
8556.10828	0.00177
8552.25070	0.00190
8548.39312	0.00117
8544.53555	-0.00072
8540.67797	-0.00120
8536.82039	-0.00049
8532.96281	-0.00026
8529.10523	0.00022
8525.24766	0.00027
8521.39008	0.00131
8517.53250	-0.00025
8513.67492	-0.00036
8509.81734	0.00128
8505.95977	0.00160
8502.10219	0.00228
8498.24461	0.00387
8494.38703	0.00372
8490.52945	0.00253
8486.67187	0.00063
8482.81430	-0.00087
8478.95672	-0.00131
8475.09914	-0.00063
8471.24156	-0.00041
8467.38398	-0.00097
8463.52641	-0.00060
8459.66883	0.00045
8455.81125	0.00056
8451.95367	0.00041
8448.09609	0.00153
8444.23852	0.00165
8440.38094	0.00023
8436.52336	0.00042
8432.66578	0.00207
8428.80820	0.00188
8424.95062	0.00008
8421.09305	-0.00038
8417.23547	0.00039
8413.37789	0.00116
8409.52031	0.00166
8405.66273	0.00168
8401.80516	0.00102
8397.94758	0.00045
8394.09000	0.00060
8390.23242	0.00071
8386.37484	-0.00030
8382.51727	-0.00054
8378.65969	-0.00098
8374.80211	-0.00100
8370.94453	0.00042
8367.08695	0.00150
8363.22937	0.00010
8359.37180	-0.00053
8355.51422	0.00013
8351.65664	-0.00016
8347.79906	-0.00097
8343.94148	-0.00034
8340.08391	0.00075
8336.22633	0.00077
8332.36875	-0.00030
8328.51117	-0.00192
8324.65359	-0.00087
8320.79602	0.00142
8316.93844	0.00413
8313.08086	0.00357
8309.22328	-0.00033
8305.36570	-0.00189
8301.50812	0.00016
8297.65055	0.00254
8293.79297	0.00249
8289.93539	0.00032
8286.07781	-0.00040
8282.22023	0.00037
8278.36266	0.00048
8274.50508	0.00141
8270.64750	0.00240
8266.78992	0.00109
8262.93234	-0.00008
8259.07477	0.00045
8255.21719	0.00003
8251.35961	-0.00148
8247.50203	-0.00079
8243.64445	0.00117
8239.78687	0.00231
8235.92930	0.00328
8232.07172	0.00375
8228.21414	0.00254
8224.35656	0.00067
8220.49898	-0.00030
8216.64141	0.00049
8212.78383	-0.00100
8208.92625	-0.00297
8205.06867	-0.00132
8201.21109	0.00222
8197.35352	0.00190
8193.49594	-0.00080
8189.63836	-0.00024
8185.78078	0.00078
8181.92320	0.00066
8178.06562	0.00022
8174.20805	0.00031
8170.35047	0.00081
8166.49289	0.00096
8162.63531	0.00081
8158.77773	0.00124
8154.92016	0.00185
8151.06258	0.00122
8147.20500	0.00024
8143.34742	0.00086
8139.48984	0.00157
8135.63227	0.00039
8131.77469	-0.00054
8127.91711	-0.00017
8124.05953	0.00038
8120.20195	0.00105
8116.34437	0.00070
8112.48680	-0.00043
8108.62922	-0.00024
8104.77164	0.00048
8100.91406	0.00064
8097.05648	0.00087
8093.19891	0.00142
8089.34133	0.00207
8085.48375	0.00215
8081.62617	0.00018
8077.76859	-0.00154
8073.91102	0.00042
8070.05344	0.00194
8066.19586	0.00107
8062.33828	0.00080
8058.48070	0.00033
8054.62312	0.00058
8050.76555	0.00192
8046.90797	0.00163
8043.05039	-0.00013
8039.19281	-0.00093
8035.33523	-0.00088
8031.47766	-0.00046
8027.62008	0.00029
8023.76250	0.00070
8019.90492	0.00137
8016.04734	0.00301
8012.18977	0.00299
8008.33219	0.00033
8004.47461	-0.00092
8000.61703	-0.00064
7996.75945	-0.00012
7992.90187	-0.00008
7989.04430	0.00024
7985.18672	0.00107
7981.32914	0.00119
7977.47156	0.00111
7973.61398	0.00135
7969.75641	0.00100
7965.89883	0.00075
7962.04125	0.00136
7958.18367	0.00143
7954.32609	0.00069
7950.46852	0.00075
7946.61094	0.00153
7942.75336	0.00180
7938.89578	0.00179
7935.03820	0.00200
7931.18062	0.00243
7927.32305	0.00093
7923.46547	-0.00215
7919.60789	-0.00186
7915.75031	0.00004
7911.89273	0.00086
7908.03516	-0.00134
7904.17758	-0.00555
7900.32000	-0.00476
7896.46242	-0.00032
7892.60484	0.00059
7888.74727	-0.00066
7884.88969	-0.00068
7881.03211	0.00023
7877.17453	0.00036
7873.31695	-0.00057
7869.45937	-0.00085
7865.60180	0.00054
7861.74422	0.00123
7857.88664	0.00155
7854.02906	0.00126
7850.17148	0.00009
7846.31391	0.00005
7842.45633	0.00072
7838.59875	0.00084
7834.74117	0.00063
7830.88359	0.00025
7827.02602	-0.00005
7823.16844	0.00008
7819.31086	0.00003
7815.45328	-0.00019
7811.59570	0.00007
7807.73812	0.00010
7803.88055	-0.00096
7800.02297	-0.00097
7796.16539	0.00049
7792.30781	0.00170
7788.45023	0.00215
7784.59266	0.00064
7780.73508	-0.00172
7776.87750	-0.00196
7773.01992	-0.00058
7769.16234	0.00094
7765.30477	0.00152
7761.44719	0.00122
7757.58961	0.00125
7753.73203	0.00103
7749.87445	0.00021
7746.01687	0.00003
7742.15930	0.00049
7738.30172	0.00103
7734.44414	0.00157
7730.58656	0.00170
7726.72898	0.00107
7722.87141	0.00020
7719.01383	0.00009
7715.15625	0.00113
7711.29867	0.00246
7707.44109	0.00224
7703.58352	0.00016
7699.72594	-0.00144
7695.86836	0.00087
7692.01078	0.00182
7688.15320	-0.00178
7684.29562	-0.00179
7680.43805	0.00071
7676.58047	0.00033
7672.72289	0.00053
7668.86531	0.00089
7665.00773	0.00052
7661.15016	0.00031
7657.29258	0.00011
7653.43500	0.00065
7649.57742	0.00138
7645.71984	0.00055
7641.86227	-0.00011
7638.00469	0.00079
7634.14711	0.00069
7630.28953	-0.00057
7626.43195	-0.00046
7622.57437	0.00051
7618.71680	0.00041
7614.85922	-0.00057
7611.00164	-0.00096
7607.14406	-0.00024
7603.28648	0.00001
7599.42891	-0.00025
7595.57133	-0.00048
7591.71375	-0.00029
7587.85617	0.00062
7583.99859	0.00147
7580.14102	0.00138
7576.28344	0.00045
7572.42586	0.00030
7568.56828	0.00098
7564.71070	0.00153
7560.85312	0.00173
7556.99555	0.00137
7553.13797	0.00089
7549.28039	0.00068
7545.42281	0.00034
7541.56523	-0.00052
7537.70766	-0.00029
7533.85008	-0.00019
7529.99250	-0.00089
7526.13492	-0.00096
7522.27734	0.00033
7518.41977	0.00063
7514.56219	0.00081
7510.70461	0.00123
7506.84703	0.00087
7502.98945	0.00027
7499.13187	0.00041
7495.27430	0.00021
7491.41672	-0.00054
7487.55914	-0.00042
7483.70156	0.00014
7479.84398	-0.00018
7475.98641	-0.00077
7472.12883	-0.00087
7468.27125	-0.00102
7464.41367	-0.00111
7460.55609	-0.00080
7456.69852	-0.00018
7452.84094	0.00065
7448.98336	0.00104
7445.12578	-0.00019
7441.26820	-0.00106
7437.41062	0.00002
7433.55305	0.00058
7429.69547	0.00084
7425.83789	0.00095
7421.98031	0.00084
7418.12273	0.00017
7414.26516	0.00072
7410.40758	0.00117
7406.55000	0.00110
7402.69242	0.00131
7398.83484	0.00102
7394.97727	0.00026
7391.11969	0.00003
7387.26211	0.00055
7383.40453	0.00145
7379.54695	0.00119
7375.68937	0.00014
7371.83180	-0.00050
7367.97422	-0.00128
7364.11664	-0.00109
7360.25906	0.00068
7356.40148	0.00132
7352.54391	0.00125
7348.68633	0.00070
7344.82875	0.00005
7340.97117	0.00047
7337.11359	0.00077
7333.25602	0.00041
7329.39844	-0.00015
7325.54086	0.00014
7321.68328	0.00118
7317.82570	0.00117
7313.96812	0.00062
7310.11055	0.00063
7306.25297	-0.00006
7302.39539	-0.00048
7298.53781	0.00062
7294.68023	0.00063
7290.82266	0.00012
7286.96508	-0.00032
7283.10750	-0.00030
7279.24992	0.00007
7275.39234	0.00064
7271.53477	0.00118
7267.67719	0.00138
7263.81961	0.00034
7259.96203	-0.00022
7256.10445	0.00064
7252.24687	0.00054
7248.38930	-0.00033
7244.53172	0.00073
7240.67414	0.00208
7236.81656	0.00142
7232.95898	0.00018
7229.10141	-0.00045
7225.24383	0.00003
7221.38625	0.00045
7217.52867	0.00004
7213.67109	0.00026
7209.81352	0.00059
7205.95594	0.00034
7202.09836	0.00069
7198.24078	0.00066
7194.38320	0.00009
7190.52562	0.00016
7186.66805	-0.00104
7182.81047	-0.00091
7178.95289	0.00155
7175.09531	0.00088
7171.23773	0.00074
7167.38016	0.00115
7163.52258	0.00100
7159.66500	0.00026
7155.80742	-0.00029
7151.94984	-0.00021
7148.09227	0.00045
7144.23469	0.00059
7140.37711	-0.00013
7136.51953	-0.00027
7132.66195	0.00028
7128.80437	0.00046
7124.94680	0.00025
7121.08922	0.00022
7117.23164	0.00009
7113.37406	0.00002
7109.51648	0.00058
7105.65891	0.00129
7101.80133	0.00070
7097.94375	-0.00071
7094.08617	-0.00120
7090.22859	-0.00041
7086.37102	0.00088
7082.51344	0.00138
7078.65586	0.00064
7074.79828	-0.00054
7070.94070	-0.00127
7067.08312	-0.00096
7063.22555	-0.00006
7059.36797	0.00040
7055.51039	0.00057
7051.65281	0.00098
7047.79523	0.00105
7043.93766	0.00059
7040.08008	0.00049
7036.22250	0.00063
7032.36492	0.00115
7028.50734	0.00150
7024.64977	0.00062
7020.79219	0.00010
7016.93461	0.00064
7013.07703	0.00082
7009.21945	0.00075
7005.36187	0.00051
7001.50430	0.00014
6997.64672	0.00033
6993.78914	0.00037
6989.93156	-0.00012
6986.07398	-0.00048
6982.21641	0.00004
6978.35883	0.00071
6974.50125	0.00031
6970.64367	-0.00012
6966.78609	0.00033
6962.92852	0.00073
6959.07094	0.00007
6955.21336	-0.00043
6951.35578	0.00011
6947.49820	0.00039
6943.64062	0.00021
6939.78305	0.00032
6935.92547	0.00038
6932.06789	0.00036
6928.21031	0.00081
6924.35273	0.00090
6920.49516	0.00001
6916.63758	-0.00083
6912.78000	-0.00090
6908.92242	-0.00093
6905.06484	-0.00068
6901.20727	-0.00016
6897.34969	-0.00056
6893.49211	-0.00112
6889.63453	-0.00058
6885.77695	0.00011
6881.91937	0.00041
6878.06180	0.00039
6874.20422	0.00000
6870.34664	-0.00038
6866.48906	-0.00056
6862.63148	-0.00010
6858.77391	0.00036
6854.91633	-0.00039
6851.05875	-0.00029
6847.20117	0.00048
6843.34359	0.00076
6839.48602	0.00075
6835.62844	0.00092
6831.77086	0.00098
6827.91328	0.00059
6824.05570	-0.00004
6820.19812	-0.00041
6816.34055	-0.00046
6812.48297	-0.00047
6808.62539	-0.00044
6804.76781	-0.00033
6800.91023	0.00016
6797.05266	0.00059
6793.19508	0.00009
6789.33750	-0.00086
6785.47992	-0.00119
6781.62234	-0.00063
6777.76477	0.00036
6773.90719	0.00068
6770.04961	0.00025
6766.19203	0.00034
6762.33445	0.00065
6758.47687	0.00011
6754.61930	-0.00040
6750.76172	0.00046
6746.90414	0.00006
6743.04656	-0.00031
6739.18898	0.00074
6735.33141	0.00128
6731.47383	0.00062
6727.61625	0.00019
6723.75867	0.00083
6719.90109	0.00134
6716.04352	0.00074
6712.18594	0.00043
6708.32836	0.00094
6704.47078	0.00076
6700.61320	0.00005
6696.75562	0.00014
6692.89805	0.00057
6689.04047	0.00053
6685.18289	0.00031
6681.32531	-0.00001
6677.46773	-0.00023
6673.61016	-0.00031
6669.75258	-0.00061
6665.89500	-0.00077
6662.03742	-0.00009
6658.17984	0.00032
6654.32227	-0.00004
6650.46469	-0.00011
6646.60711	0.00023
6642.74953	0.00042
6638.89195	0.00049
6635.03437	0.00063
6631.17680	0.00040
6627.31922	-0.00004
6623.46164	0.00029
6619.60406	0.00093
6615.74648	0.00081
6611.88891	0.00018
6608.03133	-0.00032
6604.17375	-0.00048
6600.31617	-0.00031
6596.45859	-0.00007
6592.60102	0.00009
6588.74344	0.00054
6584.88586	0.00091
6581.02828	0.00042
6577.17070	0.00003
6573.31312	0.00061
6569.45555	0.00107
6565.59797	0.00057
6561.74039	-0.00013
6557.88281	-0.00056
6554.02523	-0.00033
6550.16766	0.00002
6546.31008	-0.00028
6542.45250	-0.00111
6538.59492	-0.00140
6534.73734	-0.00123
6530.87977	-0.00088
6527.02219	-0.00048
6523.16461	0.00084
6519.30703	0.00066
6515.44945	-0.00050
6511.59187	0.00049
6507.73430	0.00098
6503.87672	0.00013
6500.01914	0.00032
6496.16156	0.00019
6492.30398	-0.00019
6488.44641	-0.00010
6484.58883	0.00037
6480.73125	0.00060
6476.87367	0.00029
6473.01609	0.00014
6469.15852	0.00022
6465.30094	0.00038
6461.44336	0.00078
6457.58578	0.00107
6453.72820	0.00064
6449.87062	0.00016
6446.01305	0.00029
6442.15547	0.00045
6438.29789	0.00039
6434.44031	0.00034
6430.58273	0.00033
6426.72516	-0.00015
6422.86758	-0.00076
6419.01000	-0.00026
6415.15242	0.00047
6411.29484	0.00105
6407.43727	0.00056
6403.57969	-0.00050
6399.72211	-0.00014
6395.86453	0.00048
6392.00695	0.00036
6388.14937	0.00056
6384.29180	0.00068
6380.43422	0.00024
6376.57664	0.00009
6372.71906	0.00031
6368.86148	0.00065
6365.00391	0.00072
6361.14633	0.00046
6357.28875	0.00043
6353.43117	0.00072
6349.57359	0.00059
6345.71602	-0.00020
6341.85844	-0.00026
6338.00086	0.00048
6334.14328	0.00044
6330.28570	-0.00021
6326.42812	-0.00031
6322.57055	0.00019
6318.71297	0.00074
6314.85539	0.00070
6310.99781	0.00022
6307.14023	-0.00015
6303.28266	-0.00016
6299.42508	0.00022
6295.56750	0.00042
6291.70992	-0.00001
6287.85234	-0.00019
6283.99477	-0.00007
6280.13719	-0.00019
6276.27961	-0.00010
6272.42203	0.00036
6268.56445	0.00078
6264.70687	0.00098
6260.84930	0.00090
6256.99172	0.00072
6253.13414	0.00071
6249.27656	0.00051
6245.41898	0.00015
6241.56141	0.00017
6237.70383	0.00044
6233.84625	0.00068
6229.98867	0.00082
6226.13109	0.00055
6222.27352	0.00020
6218.41594	0.00041
6214.55836	0.00074
6210.70078	0.00073
6206.84320	0.00068
6202.98562	0.00067
6199.12805	0.00033
6195.27047	-0.00010
6191.41289	0.00004
6187.55531	0.00053
6183.69773	0.00057
6179.84016	0.00032
6175.98258	0.00039
6172.12500	0.00018
6168.26742	-0.00007
6164.40984	0.00028
6160.55227	0.00056
6156.69469	0.00093
6152.83711	0.00091
6148.97953	-0.00003
6145.12195	0.00008
6141.26437	0.00034
6137.40680	-0.00021
6133.54922	-0.00009
6129.69164	0.00036
6125.83406	0.00071
6121.97648	0.00067
6118.11891	0.00012
6114.26133	0.00007
6110.40375	0.00012
6106.54617	-0.00016
6102.68859	-0.00030
6098.83102	-0.00035
6094.97344	-0.00061
6091.11586	-0.00069
6087.25828	-0.00026
6083.40070	0.00038
6079.54312	0.00063
6075.68555	0.00024
6071.82797	0.00026
6067.97039	0.00081
6064.11281	0.00090
6060.25523	0.00033
6056.39766	-0.00001
6052.54008	0.00010
6048.68250	0.00010
6044.82492	0.00007
6040.96734	0.00025
6037.10977	0.00052
6033.25219	0.00071
6029.39461	0.00037
6025.53703	-0.00048
6021.67945	-0.00002
6017.82187	-0.00011
6013.96430	-0.00036
6010.10672	0.00043
6006.24914	0.00009
6002.39156	-0.00010
5998.53398	0.00036
5994.67641	0.00061
5990.81883	0.00065
5986.96125	0.00052
5983.10367	0.00005
5979.24609	-0.00028
5975.38852	-0.00000
5971.53094	0.00043
5967.67336	0.00065
5963.81578	0.00057
5959.95820	0.00026
5956.10062	-0.00000
5952.24305	-0.00004
5948.38547	-0.00032
5944.52789	-0.00072
5940.67031	-0.00088
5936.81273	-0.00060
5932.95516	-0.00001
5929.09758	0.00046
5925.24000	0.00049
5921.38242	0.00046
5917.52484	0.00047
5913.66727	0.00027
5909.80969	0.00027
5905.95211	0.00032
5902.09453	0.00011
5898.23695	0.00012
5894.37937	0.00010
5890.52180	-0.00013
5886.66422	-0.00011
5882.80664	-0.00008
5878.94906	-0.00015
5875.09148	-0.00022
5871.23391	-0.00005
5867.37633	0.00020
5863.51875	0.00028
5859.66117	0.00030
5855.80359	0.00017
5851.94602	0.00016
5848.08844	-0.00023
5844.23086	-0.00016
5840.37328	0.00023
5836.51570	0.00010
5832.65812	0.00042
5828.80055	0.00051
5824.94297	0.00030
5821.08539	0.00017
5817.22781	0.00005
5813.37023	-0.00001
5809.51266	0.00008
5805.65508	0.00014
5801.79750	0.00005
5797.93992	-0.00008
5794.08234	-0.00022
5790.22477	-0.00031
5786.36719	-0.00036
5782.50961	-0.00050
5778.65203	-0.00023
5774.79445	0.00061
5770.93687	0.00068
5767.07930	-0.00005
5763.22172	-0.00045
5759.36414	-0.00003
5755.50656	0.00065
5751.64898	0.00086
5747.79141	0.00038
5743.93383	0.00029
5740.07625	0.00059
5736.21867	0.00038
5732.36109	0.00001
5728.50352	-0.00012
5724.64594	0.00001
5720.78836	-0.00008
5716.93078	-0.00034
5713.07320	-0.00040
5709.21562	-0.00026
5705.35805	-0.00001
5701.50047	0.00067
5697.64289	0.00109
5693.78531	0.00046
5689.92773	-0.00003
5686.07016	0.00010
5682.21258	0.00004
5678.35500	0.00010
5674.49742	0.00024
5670.63984	0.00044
5666.78227	0.00032
5662.92469	0.00005
5659.06711	0.00013
5655.20953	0.00010
5651.35195	0.00006
5647.49437	0.00020
5643.63680	0.00039
5639.77922	0.00054
5635.92164	0.00045
5632.06406	0.00018
5628.20648	0.00012
5624.34891	0.00016
5620.49133	0.00026
5616.63375	0.00032
5612.77617	0.00024
5608.91859	0.00006
5605.06102	-0.00012
5601.20344	-0.00022
5597.34586	-0.00005
5593.48828	0.00026
5589.63070	0.00073
5585.77312	0.00103
5581.91555	0.00058
5578.05797	0.00004
5574.20039	0.00025
5570.34281	0.00051
5566.48523	0.00031
5562.62766	0.00002
5558.77008	-0.00026
5554.91250	-0.00013
5551.05492	0.00038
5547.19734	0.00015
5543.33977	-0.00007
5539.48219	0.00018
5535.62461	0.00017
5531.76703	-0.00010
5527.90945	-0.00003
5524.05187	0.00033
5520.19430	0.00039
5516.33672	0.00011
5512.47914	-0.00018
5508.62156	0.00001
5504.76398	0.00067
5500.90641	0.00082
5497.04883	-0.00002
5493.19125	-0.00086
5489.33367	-0.00035
5485.47609	0.00060
5481.61852	0.00056
5477.76094	0.00017
5473.90336	0.00011
5470.04578	0.00010
5466.18820	0.00013
5462.33062	0.00034
5458.47305	0.00046
5454.61547	0.00053
5450.75789	0.00076
5446.90031	0.00086
5443.04273	0.00060
5439.18516	0.00068
5435.32758	0.00097
5431.47000	0.00042
5427.61242	-0.00029
5423.75484	0.00022
5419.89727	0.00017
5416.03969	-0.00033
5412.18211	0.00053
5408.32453	0.00080
5404.46695	0.00020
5400.60937	-0.00001
5396.75180	-0.00018
5392.89422	-0.00029
5389.03664	-0.00006
5385.17906	0.00023
5381.32148	-0.00023
5377.46391	-0.00014
5373.60633	0.00039
5369.74875	-0.00006
5365.89117	-0.00038
5362.03359	0.00002
5358.17602	0.00066
5354.31844	0.00050
5350.46086	0.00002
5346.60328	-0.00002
5342.74570	0.00012
5338.88812	0.00054
5335.03055	0.00058
5331.17297	0.00031
5327.31539	0.00036
5323.45781	0.00029
5319.60023	0.00026
5315.74266	0.00014
5311.88508	-0.00063
5308.02750	-0.00039
5304.16992	0.00018
5300.31234	0.00010
5296.45477	0.00004
5292.59719	0.00001
5288.73961	-0.00007
5284.88203	0.00029
5281.02445	0.00083
5277.16687	0.00092
5273.30930	0.00044
5269.45172	0.00004
5265.59414	0.00047
5261.73656	0.00094
5257.87898	0.00052
5254.02141	-0.00011
5250.16383	-0.00015
5246.30625	0.00006
5242.44867	-0.00001
5238.59109	-0.00006
5234.73352	0.00008
5230.87594	0.00031
5227.01836	0.00033
5223.16078	0.00018
5219.30320	0.00021
5215.44562	0.00043
5211.58805	0.00069
5207.73047	0.00066
5203.87289	0.00042
5200.01531	0.00031
5196.15773	0.00006
5192.30016	-0.00015
5188.44258	-0.00000
5184.58500	0.00006
5180.72742	-0.00005
5176.86984	0.00018
5173.01227	0.00047
5169.15469	0.00042
5165.29711	0.00027
5161.43953	0.00001
5157.58195	-0.00035
5153.72437	-0.00004
5149.86680	0.00025
5146.00922	0.00022
5142.15164	0.00028
5138.29406	0.00020
5134.43648	0.00006
5130.57891	0.00019
5126.72133	0.00042
5122.86375	0.00041
5119.00617	0.00017
5115.14859	0.00005
5111.29102	0.00022
5107.43344	0.00028
5103.57586	0.00005
5099.71828	-0.00014
5095.86070	-0.00009
5092.00312	0.00010
5088.14555	0.00030
5084.28797	0.00006
5080.43039	-0.00033
5076.57281	-0.00042
5072.71523	0.00007
5068.85766	0.00035
5065.00008	-0.00021
5061.14250	-0.00042
5057.28492	0.00001
5053.42734	-0.00009
5049.56977	-0.00051
5045.71219	-0.00046
5041.85461	-0.00004
5037.99703	0.00013
5034.13945	0.00007
5030.28187	0.00023
5026.42430	0.00024
5022.56672	0.00015
5018.70914	0.00035
5014.85156	0.00039
5010.99398	0.00030
5007.13641	0.00037
5003.27883	0.00031
4999.42125	0.00014
4995.56367	0.00004
4991.70609	-0.00001
4987.84852	-0.00001
4983.99094	0.00005
4980.13336	0.00023
4976.27578	0.00042
4972.41820	0.00028
4968.56062	0.00006
4964.70305	0.00007
4960.84547	0.00004
4956.98789	-0.00005
4953.13031	-0.00016
4949.27273	-0.00019
4945.41516	0.00021
4941.55758	0.00031
4937.70000	-0.00024
4933.84242	-0.00026
4929.98484	0.00003
4926.12727	0.00011
4922.26969	0.00033
4918.41211	0.00023
4914.55453	-0.00016
4910.69695	0.00000
4906.83937	0.00044
4902.98180	0.00064
4899.12422	0.00063
4895.26664	0.00035
4891.40906	0.00008
4887.55148	-0.00003
4883.69391	-0.00006
4879.83633	0.00011
4875.97875	0.00041
4872.12117	0.00057
4868.26359	0.00047
4864.40602	0.00033
4860.54844	0.00018
4856.69086	0.00007
4852.83328	0.00036
4848.97570	0.00078
4845.11812	0.00070
4841.26055	0.00019
4837.40297	0.00009
4833.54539	0.00036
4829.68781	0.00030
4825.83023	0.00001
4821.97266	0.00005
4818.11508	0.00043
4814.25750	0.00047
4810.39992	0.00018
4806.54234	0.00012
4802.68477	0.00003
4798.82719	-0.00006
4794.96961	0.00031
4791.11203	0.00045
4787.25445	0.00000
4783.39687	-0.00022
4779.53930	0.00007
4775.68172	0.00044
4771.82414	0.00046
4767.96656	0.00028
4764.10898	0.00008
4760.25141	-0.00009
4756.39383	-0.00005
4752.53625	0.00020
4748.67867	0.00061
4744.82109	0.00083
4740.96352	0.00035
4737.10594	-0.00013
4733.24836	-0.00000
4729.39078	0.00010
4725.53320	-0.00014
4721.67562	-0.00012
4717.81805	0.00027
4713.96047	0.00047
4710.10289	0.00034
4706.24531	0.00027
4702.38773	0.00025
4698.53016	0.00010
4694.67258	0.00003
4690.81500	0.00009
4686.95742	0.00015
4683.09984	0.00027
4679.24227	0.00028
4675.38469	0.00005
4671.52711	-0.00008
4667.66953	0.00013
4663.81195	0.00029
4659.95437	0.00014
4656.09680	0.00017
4652.23922	0.00037
4648.38164	0.00022
4644.52406	0.00005
4640.66648	0.00015
4636.80891	0.00007
4632.95133	-0.00025
4629.09375	-0.00035
4625.23617	-0.00012
4621.37859	0.00012
4617.52102	0.00028
4613.66344	0.00041
4609.80586	0.00014
4605.94828	-0.00021
4602.09070	-0.00001
4598.23312	0.00008
4594.37555	0.00015
4590.51797	0.00006
4586.66039	-0.00012
4582.80281	0.00004
4578.94523	0.00012
4575.08766	0.00005
4571.23008	0.00020
4567.37250	0.00036
4563.51492	0.00017
4559.65734	-0.00005
4555.79977	-0.00002
4551.94219	0.00042
4548.08461	0.00076
4544.22703	0.00034
4540.36945	0.00010
4536.51187	0.00022
4532.65430	0.00008
4528.79672	-0.00021
4524.93914	-0.00034
4521.08156	-0.00027
4517.22398	-0.00015
4513.36641	-0.00007
4509.50883	-0.00002
4505.65125	0.00007
4501.79367	0.00038
4497.93609	0.00042
4494.07852	0.00021
4490.22094	0.00014
4486.36336	0.00019
4482.50578	0.00025
4478.64820	0.00011
4474.79062	0.00002
4470.93305	0.00007
4467.07547	-0.00001
4463.21789	-0.00020
4459.36031	-0.00014
4455.50273	0.00024
4451.64516	0.00036
4447.78758	0.00005
4443.93000	-0.00008
4440.07242	0.00016
4436.21484	0.00027
4432.35727	0.00020
4428.49969	0.00025
4424.64211	0.00013
4420.78453	-0.00018
4416.92695	-0.00016
4413.06937	0.00011
4409.21180	0.00017
4405.35422	0.00008
4401.49664	0.00007
4397.63906	0.00029
4393.78148	0.00045
4389.92391	0.00032
4386.06633	-0.00005
4382.20875	-0.00026
4378.35117	-0.00009
4374.49359	-0.00009
4370.63602	0.00000
4366.77844	-0.00001
4362.92086	-0.00026
4359.06328	-0.00041
4355.20570	-0.00049
4351.34812	-0.00037
4347.49055	-0.00010
4343.63297	-0.00021
4339.77539	-0.00036
4335.91781	-0.00003
4332.06023	0.00015
4328.20266	0.00004
4324.34508	-0.00002
4320.48750	0.00014
4316.62992	0.00035
4312.77234	0.00026
4308.91477	-0.00009
4305.05719	-0.00014
4301.19961	0.00014
4297.34203	0.00029
4293.48445	0.00023
4289.62687	0.00024
4285.76930	0.00023
4281.91172	0.00014
4278.05414	0.00018
4274.19656	0.00017
4270.33898	0.00009
4266.48141	0.00018
4262.62383	0.00023
4258.76625	0.00018
4254.90867	0.00029
4251.05109	0.00036
4247.19352	0.00019
4243.33594	0.00007
4239.47836	0.00011
4235.62078	0.00004
4231.76320	-0.00001
4227.90562	0.00014
4224.04805	0.00018
4220.19047	0.00002
4216.33289	-0.00019
4212.47531	0.00007
4208.61773	0.00034
4204.76016	0.00035
4200.90258	0.00025
4197.04500	0.00022
4193.18742	0.00018
4189.32984	-0.00005
4185.47227	-0.00022
4181.61469	0.00000
4177.75711	0.00023
4173.89953	0.00027
4170.04195	0.00029
4166.18437	0.00011
4162.32680	-0.00003
4158.46922	0.00009
4154.61164	0.00011
4150.75406	0.00015
4146.89648	0.00030
4143.03891	0.00032
4139.18133	0.00025
4135.32375	0.00003
4131.46617	-0.00021
4127.60859	-0.00038
4123.75102	-0.00028
4119.89344	-0.00008
4116.03586	0.00000
4112.17828	-0.00007
4108.32070	-0.00009
4104.46312	0.00004
4100.60555	0.00027
4096.74797	0.00044
4092.89039	0.00038
4089.03281	0.00019
4085.17523	-0.00005
4081.31766	-0.00005
4077.46008	0.00010
4073.60250	0.00020
4069.74492	-0.00002
4065.88734	-0.00010
4062.02977	0.00027
4058.17219	0.00034
4054.31461	0.00024
4050.45703	0.00025
4046.59945	0.00031
4042.74187	0.00037
4038.88430	0.00027
4035.02672	0.00009
4031.16914	0.00012
4027.31156	0.00017
4023.45398	0.00010
4019.59641	0.00015
4015.73883	0.00022
4011.88125	0.00011
4008.02367	0.00004
4004.16609	0.00014
4000.30852	0.00025
3996.45094	0.00022
3992.59336	0.00008
3988.73578	0.00002
3984.87820	0.00015
3981.02062	0.00025
3977.16305	0.00005
3973.30547	0.00003
3969.44789	-0.00012
3965.59031	-0.00022
3961.73273	0.00015
3957.87516	-0.00006
3954.01758	-0.00003
3950.16000	0.00023
3946.30242	0.00022
3942.44484	0.00027
3938.58727	0.00019
3934.72969	0.00001
3930.87211	-0.00008
3927.01453	-0.00003
3923.15695	0.00024
3919.29937	0.00044
3915.44180	0.00016
3911.58422	-0.00016
3907.72664	-0.00026
3903.86906	-0.00020
3900.01148	-0.00010
3896.15391	0.00007
3892.29633	0.00020
3888.43875	0.00022
3884.58117	0.00042
3880.72359	0.00026
3876.86602	-0.00011
3873.00844	0.00005
3869.15086	0.00024
3865.29328	-0.00010
3861.43570	-0.00030
3857.57812	0.00005
3853.72055	0.00073
3849.86297	0.00055
3846.00539	0.00024
3842.14781	0.00019
3838.29023	0.00022
3834.43266	0.00013
3830.57508	0.00018
3826.71750	0.00034
3822.85992	-0.00000
3819.00234	-0.00028
3815.14477	-0.00002
3811.28719	-0.00024
3807.42961	-0.00000
3803.57203	0.00017
3799.71445	-0.00021
3795.85687	0.00011
3791.99930	0.00010
3788.14172	-0.00005
3784.28414	-0.00012
3780.42656	-0.00000
3776.56898	0.00023
3772.71141	0.00028
3768.85383	0.00009
3764.99625	0.00017
3761.13867	0.00048
3757.28109	0.00044
3753.42352	0.00008
3749.56594	-0.00001
3745.70836	0.00005
3741.85078	-0.00001
3737.99320	-0.00006
3734.13562	-0.00003
3730.27805	0.00000
3726.42047	-0.00002
3722.56289	0.00002
3718.70531	0.00016
3714.84773	0.00046
3710.99016	0.00055
3707.13258	0.00039
3703.27500	0.00024
3699.41742	0.00020
3695.55984	0.00039
3691.70227	0.00010
3687.84469	-0.00014
3683.98711	0.00021
3680.12953	0.00031
3676.27195	0.00020
3672.41437	0.00030
3668.55680	0.00056
3664.69922	0.00048
3660.84164	0.00025
3656.98406	0.00027
3653.12648	0.00063
3649.26891	0.00076
3645.41133	0.00027
3641.55375	0.00017
3637.69617	0.00028
3633.83859	0.00038
3629.98102	0.00028
3626.12344	-0.00002
3622.26586	0.00039
3618.40828	0.00090
3614.55070	0.00045
3610.69312	-0.00007
3606.83555	-0.00025
3602.97797	-0.00044
3599.12039	-0.00050
3595.26281	-0.00023
3591.40523	0.00022
3587.54766	0.00060
3583.69008	0.00057
3579.83250	0.00043
3575.97492	0.00025
3572.11734	0.00005
3568.25977	-0.00021
3564.40219	0.00009
3560.54461	0.00044
3556.68703	0.00038
3552.82945	0.00020
3548.97187	0.00018
3545.11430	0.00032
3541.25672	0.00035
3537.39914	0.00016
3533.54156	0.00001
3529.68398	0.00003
3525.82641	0.00010
3521.96883	0.00025
3518.11125	0.00039
3514.25367	0.00036
3510.39609	0.00017
3506.53852	-0.00008
3502.68094	-0.00013
3498.82336	0.00007
3494.96578	0.00007
3491.10820	-0.00006
3487.25062	-0.00001
3483.39305	0.00013
3479.53547	0.00016
3475.67789	0.00009
3471.82031	-0.00001
3467.96273	-0.00003
3464.10516	0.00001
3460.24758	0.00008
3456.39000	0.00024
3452.53242	0.00027
3448.67484	0.00023
3444.81727	0.00025
3440.95969	0.00025
3437.10211	0.00025
3433.24453	0.00018
3429.38695	-0.00007
3425.52937	-0.00011
3421.67180	0.00018
3417.81422	0.00036
3413.95664	0.00032
3410.09906	0.00029
3406.24148	0.00023
3402.38391	0.00017
3398.52633	0.00024
3394.66875	0.00019
3390.81117	0.00001
3386.95359	-0.00003
3383.09602	0.00014
3379.23844	0.00020
3375.38086	-0.00011
3371.52328	-0.00007
3367.66570	0.00031
3363.80812	0.00031
3359.95055	0.00011
3356.09297	0.00010
3352.23539	0.00011
3348.37781	0.00021
3344.52023	0.00042
3340.66266	0.00032
3336.80508	-0.00005
3332.94750	-0.00014
3329.08992	0.00013
3325.23234	0.00016
3321.37477	0.00009
3317.51719	-0.00001
3313.65961	-0.00006
3309.80203	0.00019
3305.94445	0.00001
3302.08687	-0.00012
3298.22930	0.00014
3294.37172	0.00020
3290.51414	0.00006
3286.65656	-0.00002
3282.79898	-0.00004
3278.94141	0.00002
3275.08383	0.00019
3271.22625	0.00026
3267.36867	0.00013
3263.51109	0.00006
3259.65352	0.00011
3255.79594	0.00017
3251.93836	0.00027
3248.08078	0.00028
3244.22320	0.00008
3240.36562	-0.00002
3236.50805	0.00012
3232.65047	0.00014
3228.79289	-0.00014
3224.93531	-0.00029
3221.07773	-0.00007
3217.22016	0.00011
3213.36258	0.00020
3209.50500	0.00022
3205.64742	0.00016
3201.78984	0.00017
3197.93227	0.00023
3194.07469	0.00018
3190.21711	0.00007
3186.35953	-0.00007
3182.50195	-0.00016
3178.64437	-0.00011
3174.78680	0.00003
3170.92922	0.00010
3167.07164	0.00006
3163.21406	0.00005
3159.35648	0.00017
3155.49891	0.00016
3151.64133	0.00000
3147.78375	-0.00010
3143.92617	-0.00006
3140.06859	0.00000
3136.21102	0.00013
3132.35344	0.00027
3128.49586	0.00029
3124.63828	0.00023
3120.78070	0.00014
3116.92312	0.00003
3113.06555	-0.00007
3109.20797	-0.00011
3105.35039	-0.00003
3101.49281	0.00007
3097.63523	0.00012
3093.77766	0.00027
3089.92008	0.00038
3086.06250	0.00032
3082.20492	0.00017
3078.34734	0.00007
3074.48977	0.00007
3070.63219	0.00011
3066.77461	0.00007
3062.91703	0.00002
3059.05945	0.00003
3055.20187	0.00007
3051.34430	0.00010
3047.48672	0.00013
3043.62914	0.00016
3039.77156	0.00016
3035.91398	0.00007
3032.05641	-0.00007
3028.19883	-0.00010
3024.34125	0.00006
3020.48367	0.00017
3016.62609	0.00000
3012.76852	-0.00015
3008.91094	-0.00004
3005.05336	0.00027
3001.19578	0.00032
2997.33820	-0.00001
2993.48062	-0.00007
2989.62305	0.00011
2985.76547	0.00024
2981.90789	0.00038
2978.05031	0.00014
2974.19273	-0.00011
2970.33516	0.00000
2966.47758	0.00012
2962.62000	0.00020
2958.76242	0.00031
2954.90484	0.00020
2951.04727	-0.00002
2947.18969	-0.00003
2943.33211	0.00009
2939.47453	0.00006
2935.61695	0.00001
2931.75937	0.00014
2927.90180	0.00028
2924.04422	0.00022
2920.18664	0.00006
2916.32906	-0.00009
2912.47148	-0.00015
2908.61391	-0.00009
2904.75633	0.00012
2900.89875	0.00027
2897.04117	0.00022
2893.18359	0.00016
2889.32602	0.00007
2885.46844	-0.00009
2881.61086	-0.00003
2877.75328	0.00022
2873.89570	0.00025
2870.03812	0.00005
2866.18055	-0.00021
2862.32297	-0.00024
2858.46539	0.00007
2854.60781	0.00038
2850.75023	0.00049
2846.89266	0.00041
2843.03508	0.00012
2839.17750	-0.00006
2835.31992	0.00002
2831.46234	0.00008
2827.60477	-0.00000
2823.74719	-0.00007
2819.88961	-0.00006
2816.03203	-0.00004
2812.17445	-0.00007
2808.31687	-0.00010
2804.45930	-0.00003
2800.60172	0.00016
2796.74414	0.00026
2792.88656	0.00010
2789.02898	-0.00009
2785.17141	0.00000
2781.31383	0.00009
2777.45625	-0.00000
2773.59867	0.00001
2769.74109	0.00004
2765.88352	0.00007
2762.02594	-0.00010
2758.16836	-0.00018
2754.31078	0.00008
2750.45320	0.00025
2746.59562	0.00019
2742.73805	0.00014
2738.88047	0.00012
2735.02289	0.00013
2731.16531	0.00003
2727.30773	-0.00000
2723.45016	0.00021
2719.59258	0.00031
2715.73500	0.00007
2711.87742	-0.00016
2708.01984	0.00005
2704.16227	0.00027
2700.30469	0.00014
2696.44711	0.00004
2692.58953	0.00002
2688.73195	0.00008
2684.87437	0.00016
2681.01680	0.00015
2677.15922	0.00013
2673.30164	0.00016
2669.44406	0.00016
2665.58648	0.00008
2661.72891	0.00004
2657.87133	-0.00006
2654.01375	-0.00018
2650.15617	-0.00021
2646.29859	-0.00023
2642.44102	-0.00025
2638.58344	-0.00023
2634.72586	-0.00003
2630.86828	0.00018
2627.01070	0.00015
2623.15312	0.00023
2619.29555	0.00028
2615.43797	0.00010
2611.58039	-0.00000
2607.72281	0.00009
2603.86523	0.00012
2600.00766	-0.00002
2596.15008	-0.00013
2592.29250	-0.00000
2588.43492	0.00015
2584.57734	0.00004
2580.71977	-0.00014
2576.86219	-0.00006
2573.00461	0.00026
2569.14703	0.00032
2565.28945	0.00002
2561.43187	-0.00027
2557.57430	-0.00022
2553.71672	0.00003
2549.85914	0.00017
2546.00156	0.00020
2542.14398	0.00026
2538.28641	0.00012
2534.42883	-0.00021
2530.57125	-0.00023
2526.71367	0.00006
2522.85609	0.00006
2518.99852	0.00013
2515.14094	0.00002
2511.28336	0.00003
2507.42578	0.00015
2503.56820	0.00013
2499.71062	0.00009
2495.85305	0.00025
2491.99547	0.00043
2488.13789	0.00038
2484.28031	0.00024
2480.42273	0.00024
2476.56516	0.00033
2472.70758	0.00042
2468.85000	0.00049
2464.99242	0.00042
2461.13484	0.00036
2457.27727	0.00045
2453.41969	0.00028
2449.56211	-0.00022
2445.70453	-0.00012
2441.84695	0.00018
2437.98937	0.00011
2434.13180	0.00037
2430.27422	0.00073
2426.41664	0.00050
2422.55906	0.00006
2418.70148	-0.00007
2414.84391	0.00007
2410.98633	0.00011
2407.12875	-0.00007
2403.27117	-0.00005
2399.41359	0.00013
2395.55602	0.00014
2391.69844	0.00011
2387.84086	0.00013
2383.98328	0.00020
2380.12570	0.00070
2376.26812	0.00223
2372.41055	0.00391
2368.55297	0.00407
2364.69539	0.00540
2360.83781	0.00687
2356.98023	0.00359
2353.12266	-0.00101
2349.26508	-0.00140
2345.40750	0.00026
2341.54992	0.00497
2337.69234	0.00477
2333.83477	0.00021
2329.97719	-0.00185
2326.11961	-0.00013
2322.26203	0.00122
2318.40445	0.00099
2314.54687	0.00096
2310.68930	0.00148
2306.83172	0.00139
2302.97414	0.00056
2299.11656	-0.00014
2295.25898	-0.00046
2291.40141	-0.00042
2287.54383	-0.00021
2283.68625	-0.00013
2279.82867	-0.00000
2275.97109	0.00042
2272.11352	0.00102
2268.25594	0.00106
2264.39836	0.00037
2260.54078	0.00023
2256.68320	0.00077
2252.82562	0.00091
2248.96805	0.00087
2245.11047	0.00108
2241.25289	0.00116
2237.39531	0.00092
2233.53773	0.00048
2229.68016	0.00006
2225.82258	-0.00016
2221.96500	-0.00000
2218.10742	0.00090
2214.24984	0.00198
2210.39227	0.00200
2206.53469	0.00091
2202.67711	-0.00066
2198.81953	-0.00035
2194.96195	0.00025
2191.10437	0.00007
2187.24680	0.00031
2183.38922	0.00065
2179.53164	0.00009
2175.67406	-0.00028
2171.81648	-0.00006
2167.95891	-0.00006
2164.10133	-0.00018
2160.24375	0.00001
2156.38617	0.00040
2152.52859	0.00057
2148.67102	0.00044
2144.81344	0.00035
2140.95586	0.00021
2137.09828	-0.00009
2133.24070	-0.00016
2129.38312	0.00008
2125.52555	0.00044
2121.66797	0.00094
2117.81039	0.00095
2113.95281	0.00029
2110.09523	0.00047
2106.23766	0.00169
2102.38008	0.00229
2098.52250	0.00207
2094.66492	0.00208
2090.80734	0.00191
2086.94977	0.00011
2083.09219	-0.00162
2079.23461	-0.00083
2075.37703	-0.00046
2071.51945	-0.00089
2067.66187	0.00245
2063.80430	0.00676
2059.94672	0.00593
2056.08914	0.00102
2052.23156	-0.00114
2048.37398	-0.00010
2044.51641	-0.00058
2040.65883	0.00004
2036.80125	0.00358
2032.94367	0.00422
2029.08609	0.00117
2025.22852	-0.00132
2021.37094	-0.00211
2017.51336	-0.00209
2013.65578	-0.00202
2009.79820	-0.00225
2005.94062	-0.00251
2002.08305	-0.00219
1998.22547	-0.00036
1994.36789	0.00205
1990.51031	0.00457
1986.65273	0.00359
1982.79516	0.00192
1978.93758	0.00160
1975.08000	0.00114
1971.22242	0.00244
1967.36484	0.00493
1963.50727	0.00463
1959.64969	0.00475
1955.79211	0.00448
1951.93453	0.00029
1948.07695	-0.00144
1944.21937	0.00112
1940.36180	0.00339
1936.50422	0.00462
1932.64664	0.00335
1928.78906	0.00067
1924.93148	0.00000
1921.07391	0.00126
1917.21633	0.00344
1913.35875	0.00314
1909.50117	0.00038
1905.64359	0.00029
1901.78602	0.00112
1897.92844	0.00021
1894.07086	0.00121
1890.21328	0.00171
1886.35570	-0.00128
1882.49812	-0.00140
1878.64055	0.00001
1874.78297	0.00022
1870.92539	0.00065
1867.06781	0.00238
1863.21023	0.00196
1859.35266	0.00002
1855.49508	0.00035
1851.63750	0.00260
1847.77992	0.00250
1843.92234	0.00155
1840.06477	0.00275
1836.20719	0.00227
1832.34961	0.00209
1828.49203	0.00288
1824.63445	0.00058
1820.77687	0.00076
1816.91930	0.00262
1813.06172	-0.00102
1809.20414	-0.00353
1805.34656	-0.00109
1801.48898	0.00251
1797.63141	0.00125
1793.77383	-0.00426
1789.91625	0.00047
1786.05867	0.00411
1782.20109	0.00413
1778.34352	0.00249
1774.48594	0.00282
1770.62836	0.00340
1766.77078	0.00217
1762.91320	0.00077
1759.05562	-0.00099
1755.19805	-0.00116
1751.34047	0.00086
1747.48289	0.00296
1743.62531	0.00349
1739.76773	0.00413
1735.91016	0.00471
1732.05258	0.00374
1728.19500	0.00176
1724.33742	0.00071
1720.47984	0.00267
1716.62227	0.00351
1712.76469	-0.00061
1708.90711	-0.00064
1705.04953	0.00258
1701.19195	0.00458
1697.33437	0.00483
1693.47680	0.00317
1689.61922	0.00138
1685.76164	0.00050
1681.90406	0.00051
1678.04648	0.00038
1674.18891	-0.00085
1670.33133	-0.00264
1666.47375	0.00056
1662.61617	0.00359
1658.75859	0.00411
1654.90102	0.00365
1651.04344	0.00539
1647.18586	0.00444
1643.32828	0.00136
1639.47070	0.00029
1635.61312	0.00045
1631.75555	-0.00010
1627.89797	-0.00040
1624.04039	0.00132
1620.18281	0.00424
1616.32523	0.00427
1612.46766	0.00085
1608.61008	-0.00038
1604.75250	0.00065
1600.89492	0.00054
1597.03734	-0.00029
1593.17977	-0.00008
1589.32219	0.00031
1585.46461	0.00135
1581.60703	0.00318
1577.74945	0.00376
1573.89187	0.00237
1570.03430	-0.00019
1566.17672	-0.00258
1562.31914	-0.00213
1558.46156	-0.00098
1554.60398	-0.00198
1550.74641	-0.00044
1546.88883	0.00056
1543.03125	0.00012
1539.17367	0.00624
1535.31609	0.00802
1531.45852	0.00314
1527.60094	-0.00081
1523.74336	-0.00378
1519.88578	-0.00551
1516.02820	0.00121
1512.17062	0.00715
1508.31305	0.00715
1504.45547	0.00245
1500.59789	0.00246
1496.74031	0.00466
1492.88273	0.00392
1489.02516	-0.00008
1485.16758	-0.00211
1481.31000	-0.00110
1477.45242	0.00011
1473.59484	0.00294
1469.73727	0.00651
1465.87969	0.00666
1462.02211	0.00535
1458.16453	0.00542
1454.30695	0.00433
1450.44937	0.00155
1446.59180	-0.00281
1442.73422	-0.00299
1438.87664	-0.00170
1435.01906	0.00213
1431.16148	0.00311
1427.30391	-0.00315
1423.44633	-0.00466
1419.58875	0.00304
1415.73117	0.00398
1411.87359	0.00301
1408.01602	0.00279
1404.15844	0.00050
1400.30086	-0.00251
1396.44328	-0.00293
1392.58570	-0.00056
1388.72812	0.00283
1384.87055	0.00539
1381.01297	0.00377
1377.15539	0.00043
1373.29781	-0.00051
1369.44023	0.00069
1365.58266	0.00158
1361.72508	0.00087
1357.86750	-0.00034
1354.00992	0.00132
1350.15234	0.00235
1346.29477	0.00087
1342.43719	0.00113
1338.57961	0.00217
1334.72203	0.00129
1330.86445	-0.00037
1327.00687	0.00024
1323.14930	0.00152
1319.29172	0.00233
1315.43414	0.00390
1311.57656	0.00262
1307.71898	-0.00039
1303.86141	-0.00118
1300.00383	-0.00046
1296.14625	0.00097
1292.28867	0.00276
1288.43109	0.00341
1284.57352	0.00343
1280.71594	0.00409
1276.85836	0.00466
1273.00078	0.00294
1269.14320	0.00060
1265.28562	0.00148
1261.42805	0.00296
1257.57047	0.00282
1253.71289	0.00303
1249.85531	0.00400
1245.99773	0.00479
1242.14016	0.00415
1238.28258	0.00357
1234.42500	0.00477
1230.56742	0.00416
1226.70984	0.00113
1222.85227	-0.00219
1218.99469	-0.00414
1215.13711	-0.00291
1211.27953	0.00038
1207.42195	0.00116
1203.56437	-0.00284
1199.70680	-0.00612
1195.84922	0.00113
1191.99164	0.00850
1188.13406	0.01035
1184.27648	0.01084
1180.41891	0.00796
1176.56133	0.00474
1172.70375	0.00785
1168.84617	0.01081
1164.98859	0.00455
1161.13102	-0.00776
1157.27344	-0.00987
1153.41586	0.00485
1149.55828	0.01045
1145.70070	0.00086
1141.84312	0.00123
1137.98555	0.01405
1134.12797	0.02235
1130.27039	0.00560
1126.41281	-0.02020
1122.55523	-0.02972
1118.69766	-0.02244
1114.84008	0.00638
1110.98250	0.04473
1107.12492	0.06597
1103.26734	0.06918
1099.40977	0.05516
1095.55219	0.00498
1091.69461	-0.03370
1087.83703	0.01495
1083.97945	0.05030
1080.12187	0.08503
1076.26430	0.12839
1072.40672	0.08618
1068.54914	0.02756
1064.69156	0.21041
1060.83398	0.21041
1056.97641	0.11536
1053.11883	0.26554
1049.26125	0.11728
1045.40367	-0.16579
1041.54609	-0.39547
1037.68852	-0.15354
1033.83094	0.11537
1029.97336	0.23778
1026.11578	0.73953
1022.25820	0.61975
1018.40062	0.26884
1014.54305	0.34305
1010.68547	1.42715
1006.82789	1.42715
1002.97031	3.04495
999.11273	0.04840
995.25516	0.04840
991.39758	0.04840
987.54000	-1.01039
983.68242	-0.07835
979.82484	1.54613
975.96727	1.54613
972.10969	-0.83511
968.25211	-0.83511
964.39453	-0.83511
960.53695	-0.83511
956.67937	0.73497
952.82180	0.32522
948.96422	-0.02379
945.10664	-0.02943
941.24906	0.47486
937.39148	0.47486
933.53391	0.47486
929.67633	-0.04077
925.81875	0.08077
921.96117	0.06925
918.10359	-0.01203
914.24602	0.16063
910.38844	1.99896
906.53086	1.99896
902.67328	0.64076
898.81570	0.36336
894.95812	0.23366
891.10055	-0.27797
887.24297	-2.29315
883.38539	-0.15058
879.52781	0.43523
875.67023	0.25381
871.81266	0.18084
867.95508	0.64490
864.09750	0.64490
860.23992	0.64490
856.38234	4.11009
852.52477	0.44642
848.66719	-0.31442
844.80961	-0.25426
840.95203	-0.07119
837.09445	0.15281
833.23687	1.07627
829.37930	0.15740
825.52172	0.16298
821.66414	0.04554
817.80656	-0.36755
813.94898	-0.13355
810.09141	-0.05745
806.23383	-0.14262
802.37625	2.74312
798.51867	0.55761
794.66109	0.17584
790.80352	0.17014
786.94594	0.21235
783.08836	0.02841
779.23078	-0.21313
775.37320	-0.21313
771.51562	-0.21313
767.65805	-0.21313
763.80047	0.24999
759.94289	0.73066
756.08531	1.60765
752.22773	1.60765
748.37016	-3.06848
744.51258	0.58272
740.65500	0.70067
736.79742	0.10460
732.93984	0.10460
729.08227	0.10460
725.22469	0.32818
721.36711	0.33853
717.50953	0.20011
713.65195	0.21864
709.79437	0.65056
705.93680	3.71689
702.07922	3.71689
698.22164	3.71689
694.36406	0.61486
690.50648	0.11654
686.64891	0.29706
682.79133	0.62878
678.93375	0.63114
675.07617	0.28111
671.21859	-0.00740
667.36102	-0.44302
663.50344	-0.44302
659.64586	-0.44302
655.78828	-0.44302
651.93070	0.79891
648.07312	0.11773
644.21555	0.00765
640.35797	-0.10315
636.50039	1.22366
632.64281	1.22366
628.78523	1.22366
624.92766	0.18756
621.07008	0.53968
617.21250	0.75361
613.35492	-0.52298
609.49734	-0.52298
605.63977	-0.52298
601.78219	6.22976
597.92461	1.66669
594.06703	0.60134
590.20945	0.25183
586.35187	0.04761
582.49430	0.36169
578.63672	0.15689
574.77914	-0.02744
570.92156	0.16640
567.06398	0.73547
563.20641	0.73547
559.34883	0.73547
555.49125	-1.28297
551.63367	0.24322
547.77609	4.07079
543.91852	4.07079
540.06094	4.07079
536.20336	4.07079
532.34578	0.13748
528.48820	-0.11196
524.63062	0.36134
520.77305	0.36134
516.91547	0.36134
513.05789	-0.42857
509.20031	0.50831
505.34273	0.50831
501.48516	0.50831
497.62758	0.08070
493.77000	0.01733
489.91242	0.01733
486.05484	0.01733
482.19727	0.01733
478.33969	1.20288
474.48211	0.04019
470.62453	-0.38858
466.76695	-0.73451
462.90937	-1.10586
459.05180	-0.60963
455.19422	0.05967
451.33664	-0.19408
447.47906	-0.94984
443.62148	-0.91726
439.76391	-1.00458
435.90633	-0.25352
432.04875	0.05546
428.19117	0.31474
424.33359	0.06279
420.47602	-0.09004
416.61844	0.06492
412.76086	0.66862
408.90328	1.57240
405.04570	0.20284
401.18812	-1.49424
397.33055	-1.49424
393.47297	6.75629
389.61539	6.75629
385.75781	0.02360
381.90023	0.02385
378.04266	0.02523
374.18508	0.02523
370.32750	0.02523
366.46992	-4.41704
362.61234	0.01614
358.75477	0.04082
354.89719	-0.41918
351.03961	-0.27949
347.18203	-0.01041
343.32445	0.13457
339.46687	0.38433
335.60930	0.38433
331.75172	0.38433
327.89414	0.38433
324.03656	-1.27625
320.17898	-1.07100
316.32141	-1.07100
312.46383	-1.07100
308.60625	0.65772
304.74867	-0.25081
300.89109	-0.25081
