14998.26375	1.33755
14994.40617	1.25823
14990.54859	0.65056
14986.69102	0.88991
14982.83344	0.88991
14978.97586	0.88991
14975.11828	0.88991
14971.26070	0.27620
14967.40312	0.27620
14963.54555	0.27620
14959.68797	0.27620
14955.83039	0.80008
14951.97281	0.54794
14948.11523	0.19484
14944.25766	-0.25891
14940.40008	2.35940
14936.54250	2.35940
14932.68492	2.35940
14928.82734	0.97754
14924.96977	1.18883
14921.11219	0.71841
14917.25461	-1.98770
14913.39703	-0.47469
14909.53945	0.37926
14905.68187	0.37926
14901.82430	1.03418
14897.96672	0.51626
14894.10914	0.71745
14890.25156	0.71745
14886.39398	-0.35505
14882.53641	0.40441
14878.67883	0.64750
14874.82125	0.60931
14870.96367	0.79063
14867.10609	0.06925
14863.24852	-1.61205
14859.39094	-0.81046
14855.53336	-1.10751
14851.67578	-1.10751
14847.81820	1.65133
14843.96062	0.88092
14840.10305	0.56162
14836.24547	0.14933
14832.38789	0.06992
14828.53031	0.06992
14824.67273	0.06992
14820.81516	2.29949
14816.95758	2.29949
14813.10000	2.29949
14809.24242	2.40111
14805.38484	2.40111
14801.52727	2.40111
14797.66969	2.40111
14793.81211	2.40111
14789.95453	2.40111
14786.09695	2.40111
14782.23937	2.40111
14778.38180	2.40111
14774.52422	2.40111
14770.66664	2.40111
14766.80906	2.40111
14762.95148	2.40111
14759.09391	2.40111
14755.23633	0.55751
14751.37875	0.56594
14747.52117	1.53038
14743.66359	4.13436
14739.80602	0.94238
14735.94844	-0.26201
14732.09086	-0.30276
14728.23328	-0.16618
14724.37570	-0.05190
14720.51812	-0.05190
14716.66055	-0.05190
14712.80297	-0.26716
14708.94539	-0.56174
14705.08781	-0.51027
14701.23023	-0.16551
14697.37266	0.00713
14693.51508	-0.39488
14689.65750	-0.39488
14685.79992	-0.39488
14681.94234	-0.39488
14678.08477	-2.44216
14674.22719	-0.58951
14670.36961	0.62142
14666.51203	2.30413
14662.65445	2.30413
14658.79687	2.30413
14654.93930	2.30413
14651.08172	-1.51361
14647.22414	-1.72561
14643.36656	-0.01260
14639.50898	0.90805
14635.65141	1.28087
14631.79383	0.80487
14627.93625	0.11840
14624.07867	0.11840
14620.22109	1.86761
14616.36352	0.31944
14612.50594	0.09524
14608.64836	2.25197
14604.79078	2.25197
14600.93320	2.25197
14597.07562	-0.78411
14593.21805	0.23856
14589.36047	0.23179
14585.50289	-0.43862
14581.64531	1.51273
14577.78773	1.81579
14573.93016	0.33228
14570.07258	-0.30181
14566.21500	-0.50531
14562.35742	-0.73082
14558.49984	0.43315
14554.64227	0.42459
14550.78469	0.29697
14546.92711	0.29697
14543.06953	0.29697
14539.21195	0.29697
14535.35437	0.29697
14531.49680	0.40366
14527.63922	-0.17269
14523.78164	-0.17269
14519.92406	-0.15367
14516.06648	0.30529
14512.20891	0.53063
14508.35133	0.30582
14504.49375	0.35816
14500.63617	0.33873
14496.77859	0.36314
14492.92102	0.57447
14489.06344	-0.77023
14485.20586	-0.36250
14481.34828	-0.24457
14477.49070	-0.24457
14473.63312	-0.24457
14469.77555	-5.48250
14465.91797	-1.78981
14462.06039	-1.78981
14458.20281	-1.78981
14454.34523	-1.78981
14450.48766	-1.78981
14446.63008	-1.78981
14442.77250	3.20122
14438.91492	3.20122
14435.05734	3.20122
14431.19977	0.39333
14427.34219	0.39333
14423.48461	0.39333
14419.62703	0.39333
14415.76945	-1.78540
14411.91187	-0.74527
14408.05430	0.49325
14404.19672	0.49325
14400.33914	0.49325
14396.48156	0.49325
14392.62398	0.49325
14388.76641	-0.08287
14384.90883	0.12940
14381.05125	0.12940
14377.19367	0.07174
14373.33609	0.43249
14369.47852	1.50930
14365.62094	1.21557
14361.76336	0.85286
14357.90578	0.89095
14354.04820	0.48272
14350.19062	-0.02439
14346.33305	-0.88096
14342.47547	-0.96367
14338.61789	-0.96367
14334.76031	-0.96367
14330.90273	1.39413
14327.04516	-0.35735
14323.18758	-0.06365
14319.33000	0.35887
14315.47242	1.00888
14311.61484	1.00888
14307.75727	1.00888
14303.89969	-1.05376
14300.04211	-0.33607
14296.18453	-0.19600
14292.32695	-0.19600
14288.46937	-0.19600
14284.61180	0.57438
14280.75422	1.30400
14276.89664	1.30400
14273.03906	1.30400
14269.18148	1.30400
14265.32391	1.30400
14261.46633	1.30400
14257.60875	1.30400
14253.75117	0.63654
14249.89359	0.13159
14246.03602	0.11699
14242.17844	0.11699
14238.32086	0.11699
14234.46328	0.11699
14230.60570	0.11699
14226.74812	-1.39133
14222.89055	-1.39133
14219.03297	-1.39133
14215.17539	-0.01983
14211.31781	-0.90151
14207.46023	1.19116
14203.60266	1.19116
14199.74508	-0.72145
14195.88750	-0.87375
14192.02992	-0.87375
14188.17234	-0.87375
14184.31477	-0.87375
14180.45719	-0.87375
14176.59961	0.17408
14172.74203	1.31903
14168.88445	1.31903
14165.02687	1.31903
14161.16930	0.24077
14157.31172	-1.67159
14153.45414	-1.67159
14149.59656	1.98648
14145.73898	0.60104
14141.88141	-0.08421
14138.02383	0.01306
14134.16625	-1.04522
14130.30867	-1.04522
14126.45109	-1.04522
14122.59352	-1.04522
14118.73594	-1.04522
14114.87836	-1.04522
14111.02078	-1.04522
14107.16320	1.57615
14103.30562	2.73844
14099.44805	2.73844
14095.59047	2.73844
14091.73289	-0.90802
14087.87531	1.26326
14084.01773	1.26326
14080.16016	2.17762
14076.30258	1.27389
14072.44500	0.40898
14068.58742	0.40898
14064.72984	0.40898
14060.87227	-0.63538
14057.01469	-1.88811
14053.15711	-1.88811
14049.29953	0.39649
14045.44195	-0.03941
14041.58437	-0.03941
14037.72680	-0.03941
14033.86922	-0.03941
14030.01164	-0.03941
14026.15406	4.00790
14022.29648	5.94442
14018.43891	3.79035
14014.58133	0.75369
14010.72375	0.19949
14006.86617	-0.14115
14003.00859	0.19674
13999.15102	1.19276
13995.29344	2.11857
13991.43586	2.11857
13987.57828	2.11857
13983.72070	2.11857
13979.86312	0.37847
13976.00555	-1.20014
13972.14797	-1.96769
13968.29039	-1.96769
13964.43281	-1.96769
13960.57523	-1.96769
13956.71766	-1.96769
13952.86008	-1.96769
13949.00250	-1.96769
13945.14492	2.59367
13941.28734	0.61698
13937.42977	0.22680
13933.57219	0.22680
13929.71461	0.22680
13925.85703	0.22680
13921.99945	0.22680
13918.14187	0.22680
13914.28430	0.22680
13910.42672	0.22680
13906.56914	5.30832
13902.71156	-0.20952
13898.85398	-0.52342
13894.99641	0.45704
13891.13883	0.51928
13887.28125	0.54516
13883.42367	0.70987
13879.56609	0.70987
13875.70852	0.70987
13871.85094	-0.50301
13867.99336	-0.02878
13864.13578	0.49917
13860.27820	2.81870
13856.42062	2.81870
13852.56305	2.81870
13848.70547	2.81870
13844.84789	2.81870
13840.99031	1.23555
13837.13273	2.65739
13833.27516	1.08645
13829.41758	2.66876
13825.56000	2.66876
13821.70242	1.23572
13817.84484	0.45054
13813.98727	0.87047
13810.12969	1.45744
13806.27211	1.57574
13802.41453	1.57574
13798.55695	1.57574
13794.69937	1.57574
13790.84180	1.57574
13786.98422	2.83825
13783.12664	2.44544
13779.26906	2.44544
13775.41148	2.44544
13771.55391	2.09942
13767.69633	-0.36454
13763.83875	-0.68628
13759.98117	-0.51253
13756.12359	0.37086
13752.26602	0.96632
13748.40844	0.96632
13744.55086	0.96632
13740.69328	1.46485
13736.83570	0.66444
13732.97812	0.64200
13729.12055	0.08890
13725.26297	0.11430
13721.40539	0.28950
13717.54781	0.32117
13713.69023	0.02768
13709.83266	-0.08146
13705.97508	-0.08146
13702.11750	-0.08146
13698.25992	-0.08146
13694.40234	1.34894
13690.54477	0.59678
13686.68719	0.22955
13682.82961	0.22955
13678.97203	0.22955
13675.11445	-0.22890
13671.25687	-0.46496
13667.39930	0.17448
13663.54172	1.45464
13659.68414	1.45464
13655.82656	1.90691
13651.96898	1.90691
13648.11141	1.12317
13644.25383	0.36440
13640.39625	0.39357
13636.53867	0.50837
13632.68109	0.44965
13628.82352	0.13827
13624.96594	-0.87016
13621.10836	-0.63666
13617.25078	0.82995
13613.39320	0.65988
13609.53562	0.50215
13605.67805	2.27487
13601.82047	2.27487
13597.96289	2.27487
13594.10531	2.27487
13590.24773	2.27487
13586.39016	2.27487
13582.53258	2.27487
13578.67500	1.36091
13574.81742	0.98850
13570.95984	1.68419
13567.10227	2.07276
13563.24469	1.47050
13559.38711	1.02680
13555.52953	1.02680
13551.67195	1.02680
13547.81437	1.72564
13543.95680	2.04061
13540.09922	1.87626
13536.24164	1.31619
13532.38406	1.38275
13528.52648	2.45911
13524.66891	1.83447
13520.81133	0.48336
13516.95375	0.93750
13513.09617	1.17728
13509.23859	0.48127
13505.38102	0.35174
13501.52344	0.35174
13497.66586	0.35174
13493.80828	0.35174
13489.95070	0.29060
13486.09312	0.33187
13482.23555	0.35694
13478.37797	0.51973
13474.52039	1.07981
13470.66281	3.37318
13466.80523	1.52524
13462.94766	0.41257
13459.09008	0.41257
13455.23250	0.41257
13451.37492	0.82903
13447.51734	0.82903
13443.65977	1.51438
13439.80219	1.51438
13435.94461	1.51438
13432.08703	0.98935
13428.22945	0.58409
13424.37187	0.82312
13420.51430	0.82312
13416.65672	0.53370
13412.79914	0.86010
13408.94156	1.23540
13405.08398	0.94982
13401.22641	-0.22555
13397.36883	-0.22555
13393.51125	-0.22555
13389.65367	0.14434
13385.79609	-0.16475
13381.93852	-0.14553
13378.08094	0.30421
13374.22336	-0.28190
13370.36578	-0.09622
13366.50820	0.16027
13362.65062	0.43019
13358.79305	0.51151
13354.93547	0.25117
13351.07789	-0.03387
13347.22031	-0.21441
13343.36273	-1.08423
13339.50516	-1.08423
13335.64758	-1.08423
13331.79000	-0.71108
13327.93242	-0.29289
13324.07484	-0.16950
13320.21727	-0.16950
13316.35969	-0.16950
13312.50211	0.95942
13308.64453	1.58865
13304.78695	2.19698
13300.92937	0.54926
13297.07180	-0.09704
13293.21422	-0.18171
13289.35664	0.82777
13285.49906	0.82777
13281.64148	0.82777
13277.78391	-0.01223
13273.92633	-1.10826
13270.06875	1.33085
13266.21117	1.16287
13262.35359	0.96970
13258.49602	0.93335
13254.63844	0.75495
13250.78086	-0.15695
13246.92328	0.13933
13243.06570	0.26714
13239.20812	0.10275
13235.35055	0.77998
13231.49297	0.77998
13227.63539	0.77998
13223.77781	-0.13695
13219.92023	-0.05400
13216.06266	-0.05400
13212.20508	-0.05400
13208.34750	-0.05400
13204.48992	-0.05400
13200.63234	-0.05400
13196.77477	-1.59022
13192.91719	0.20279
13189.05961	0.09737
13185.20203	-0.05026
13181.34445	0.33039
13177.48687	0.33039
13173.62930	0.33039
13169.77172	0.33039
13165.91414	0.33039
13162.05656	0.33039
13158.19898	0.33039
13154.34141	0.33039
13150.48383	0.33039
13146.62625	0.33039
13142.76867	0.33039
13138.91109	0.33039
13135.05352	0.33039
13131.19594	0.33039
13127.33836	0.33039
13123.48078	4.09229
13119.62320	2.58212
13115.76562	1.90602
13111.90805	-0.08124
13108.05047	-0.12006
13104.19289	0.45961
13100.33531	0.37723
13096.47773	0.37723
13092.62016	2.44290
13088.76258	2.44290
13084.90500	2.44290
13081.04742	1.67261
13077.18984	1.11335
13073.33227	1.01244
13069.47469	3.10222
13065.61711	3.10222
13061.75953	3.10222
13057.90195	3.10222
13054.04437	-0.22272
13050.18680	-0.94948
13046.32922	-0.94948
13042.47164	-0.94948
13038.61406	-0.94948
13034.75648	-0.94948
13030.89891	-0.24036
13027.04133	0.40853
13023.18375	0.70512
13019.32617	0.70512
13015.46859	0.70512
13011.61102	0.86089
13007.75344	0.43389
13003.89586	0.43389
13000.03828	0.43389
12996.18070	0.57518
12992.32312	0.74078
12988.46555	0.74078
12984.60797	0.74078
12980.75039	1.70297
12976.89281	0.94140
12973.03523	1.26084
12969.17766	1.26084
12965.32008	1.26084
12961.46250	1.26084
12957.60492	1.26084
12953.74734	1.26084
12949.88977	0.08539
12946.03219	-0.53208
12942.17461	-0.53208
12938.31703	0.12078
12934.45945	-0.45665
12930.60187	-0.04272
12926.74430	-0.51070
12922.88672	-1.58938
12919.02914	0.81715
12915.17156	0.15933
12911.31398	0.11895
12907.45641	0.11895
12903.59883	0.11895
12899.74125	1.69675
12895.88367	1.19154
12892.02609	-0.20904
12888.16852	-0.20904
12884.31094	-0.20904
12880.45336	-0.20904
12876.59578	-0.20904
12872.73820	1.48086
12868.88062	0.32084
12865.02305	-0.63512
12861.16547	-0.63512
12857.30789	1.31130
12853.45031	0.21249
12849.59273	-0.23967
12845.73516	-0.39544
12841.87758	0.13134
12838.02000	0.70242
12834.16242	0.05895
12830.30484	-0.01672
12826.44727	-0.01672
12822.58969	-0.01672
12818.73211	-0.01672
12814.87453	-0.01672
12811.01695	-0.67837
12807.15937	-0.37495
12803.30180	-0.24831
12799.44422	-0.69020
12795.58664	-0.69020
12791.72906	-0.69020
12787.87148	-0.69020
12784.01391	-0.69020
12780.15633	-0.39034
12776.29875	0.49231
12772.44117	0.46713
12768.58359	0.41677
12764.72602	0.03184
12760.86844	-0.17187
12757.01086	-0.21970
12753.15328	-0.21970
12749.29570	-0.21970
12745.43812	-0.21970
12741.58055	-0.21970
12737.72297	-0.30077
12733.86539	0.07385
12730.00781	0.31213
12726.15023	0.36597
12722.29266	0.36597
12718.43508	0.36597
12714.57750	0.36597
12710.71992	0.36597
12706.86234	0.36597
12703.00477	0.36597
12699.14719	1.49634
12695.28961	1.49634
12691.43203	2.60181
12687.57445	1.40387
12683.71687	1.40387
12679.85930	1.40387
12676.00172	1.40387
12672.14414	1.40387
12668.28656	1.40387
12664.42898	1.40387
12660.57141	1.40387
12656.71383	1.40387
12652.85625	1.32125
12648.99867	0.40653
12645.14109	0.60505
12641.28352	0.66045
12637.42594	1.68059
12633.56836	1.68059
12629.71078	1.75703
12625.85320	1.75703
12621.99562	1.75703
12618.13805	1.75703
12614.28047	1.75703
12610.42289	4.94487
12606.56531	1.06764
12602.70773	-2.58107
12598.85016	-1.03807
12594.99258	-1.03807
12591.13500	-1.03807
12587.27742	0.74404
12583.41984	0.32483
12579.56227	-0.09341
12575.70469	-0.19432
12571.84711	0.02462
12567.98953	0.36957
12564.13195	0.29091
12560.27437	0.05030
12556.41680	-0.02664
12552.55922	0.53324
12548.70164	0.47853
12544.84406	0.47853
12540.98648	0.47853
12537.12891	0.47853
12533.27133	0.39565
12529.41375	0.34031
12525.55617	0.34031
12521.69859	0.34031
12517.84102	1.47905
12513.98344	0.99722
12510.12586	0.99722
12506.26828	0.99722
12502.41070	0.25886
12498.55312	0.05618
12494.69555	0.34272
12490.83797	-0.75541
12486.98039	-1.43094
12483.12281	-0.38360
12479.26523	0.24471
12475.40766	0.79792
12471.55008	0.79792
12467.69250	0.79792
12463.83492	0.79792
12459.97734	0.79792
12456.11977	0.79792
12452.26219	0.79792
12448.40461	0.79792
12444.54703	0.79792
12440.68945	0.79792
12436.83187	0.79792
12432.97430	0.79792
12429.11672	0.79792
12425.25914	0.79792
12421.40156	-2.06527
12417.54398	-1.32805
12413.68641	-1.32805
12409.82883	6.23711
12405.97125	4.08187
12402.11367	4.08187
12398.25609	4.08187
12394.39852	2.73517
12390.54094	1.55666
12386.68336	1.40772
12382.82578	1.40772
12378.96820	1.40772
12375.11062	1.40772
12371.25305	1.40772
12367.39547	0.37178
12363.53789	0.14130
12359.68031	0.14130
12355.82273	0.14130
12351.96516	0.14130
12348.10758	0.40184
12344.25000	0.93359
12340.39242	0.15595
12336.53484	0.44849
12332.67727	1.34378
12328.81969	1.35032
12324.96211	3.27597
12321.10453	3.27597
12317.24695	3.27597
12313.38937	3.27597
12309.53180	-0.36541
12305.67422	-0.18997
12301.81664	-0.18997
12297.95906	1.07588
12294.10148	-0.20962
12290.24391	-0.20962
12286.38633	-0.20962
12282.52875	0.00294
12278.67117	0.47028
12274.81359	-0.36262
12270.95602	-0.36262
12267.09844	-0.36262
12263.24086	-0.36262
12259.38328	1.31390
12255.52570	1.19102
12251.66812	1.19102
12247.81055	0.82176
12243.95297	0.50712
12240.09539	0.66421
12236.23781	0.72650
12232.38023	0.40222
12228.52266	0.23806
12224.66508	0.71535
12220.80750	0.84549
12216.94992	0.40035
12213.09234	0.29081
12209.23477	0.33066
12205.37719	0.68587
12201.51961	0.68587
12197.66203	0.68587
12193.80445	2.66507
12189.94687	1.38505
12186.08930	0.30156
12182.23172	0.22358
12178.37414	2.40789
12174.51656	2.40789
12170.65898	0.03695
12166.80141	5.09970
12162.94383	4.84923
12159.08625	-0.01323
12155.22867	-0.01323
12151.37109	2.79351
12147.51352	0.89365
12143.65594	0.89365
12139.79836	0.89365
12135.94078	0.89365
12132.08320	0.89365
12128.22562	2.46467
12124.36805	1.12443
12120.51047	1.76846
12116.65289	3.02742
12112.79531	-0.45303
12108.93773	-2.11796
12105.08016	-3.37858
12101.22258	-0.22408
12097.36500	-0.38612
12093.50742	-0.88723
12089.64984	1.02037
12085.79227	-0.17680
12081.93469	-0.60883
12078.07711	-0.74616
12074.21953	-2.42592
12070.36195	-2.42592
12066.50437	-2.42592
12062.64680	0.31421
12058.78922	-0.89301
12054.93164	-0.89301
12051.07406	-0.89301
12047.21648	0.78071
12043.35891	0.87334
12039.50133	0.87334
12035.64375	1.91383
12031.78617	0.73445
12027.92859	0.73445
12024.07102	0.73445
12020.21344	0.73445
12016.35586	0.73445
12012.49828	1.03281
12008.64070	-0.20944
12004.78312	-0.12022
12000.92555	-0.10513
11997.06797	-0.10513
11993.21039	-0.10513
11989.35281	0.53073
11985.49523	-0.06587
11981.63766	-0.67305
11977.78008	-1.10988
11973.92250	0.03816
11970.06492	1.38181
11966.20734	1.38181
11962.34977	-0.37578
11958.49219	-0.37578
11954.63461	-0.37578
11950.77703	-1.26007
11946.91945	-1.26007
11943.06187	-1.26007
11939.20430	1.34106
11935.34672	1.69548
11931.48914	4.72103
11927.63156	2.94101
11923.77398	1.35710
11919.91641	1.37897
11916.05883	1.94237
11912.20125	2.79230
11908.34367	2.79230
11904.48609	-0.29075
11900.62852	-0.83584
11896.77094	-0.15282
11892.91336	-0.15282
11889.05578	-0.90590
11885.19820	-0.90590
11881.34062	5.51907
11877.48305	5.11304
11873.62547	5.11304
11869.76789	5.11304
11865.91031	5.11304
11862.05273	5.11304
11858.19516	5.11304
11854.33758	5.11304
11850.48000	5.11304
11846.62242	0.14004
11842.76484	0.14004
11838.90727	0.14004
11835.04969	-0.25678
11831.19211	-0.18135
11827.33453	-0.20439
11823.47695	0.40209
11819.61937	1.89249
11815.76180	2.51824
11811.90422	2.51824
11808.04664	2.51824
11804.18906	2.51824
11800.33148	2.51824
11796.47391	2.51824
11792.61633	2.51824
11788.75875	2.51824
11784.90117	2.51824
11781.04359	2.51824
11777.18602	2.51824
11773.32844	2.51824
11769.47086	0.17599
11765.61328	0.97990
11761.75570	5.52752
11757.89812	5.52752
11754.04055	5.52752
11750.18297	5.52752
11746.32539	5.52752
11742.46781	5.52752
11738.61023	-1.20153
11734.75266	-0.48510
11730.89508	-0.88242
11727.03750	-0.88242
11723.17992	-0.88242
11719.32234	-0.88242
11715.46477	-0.63554
11711.60719	-0.37629
11707.74961	-0.37629
11703.89203	-0.37629
11700.03445	-2.45639
11696.17687	-2.45639
11692.31930	-2.45639
11688.46172	-2.45639
11684.60414	-1.13076
11680.74656	-0.81768
11676.88898	-0.81768
11673.03141	-0.81768
11669.17383	-0.22005
11665.31625	-0.47222
11661.45867	-0.90036
11657.60109	-3.10435
11653.74352	-3.10435
11649.88594	-0.53457
11646.02836	-0.16674
11642.17078	0.61534
11638.31320	0.07266
11634.45562	0.02453
11630.59805	0.19455
11626.74047	0.74235
11622.88289	1.24830
11619.02531	1.20111
11615.16773	0.83732
11611.31016	-0.33113
11607.45258	-0.33113
11603.59500	-0.33113
11599.73742	-0.33113
11595.87984	-0.33113
11592.02227	-0.33113
11588.16469	-0.33113
11584.30711	-0.10082
11580.44953	1.21039
11576.59195	1.21039
11572.73437	1.21039
11568.87680	1.21039
11565.01922	1.21039
11561.16164	0.33410
11557.30406	0.76077
11553.44648	0.76077
11549.58891	0.76077
11545.73133	0.76077
11541.87375	0.36741
11538.01617	0.02774
11534.15859	0.02774
11530.30102	0.90695
11526.44344	0.37620
11522.58586	0.37620
11518.72828	0.37620
11514.87070	4.03292
11511.01312	2.92511
11507.15555	0.64028
11503.29797	-0.20475
11499.44039	-1.19640
11495.58281	-1.19640
11491.72523	-1.19640
11487.86766	-1.19640
11484.01008	3.62366
11480.15250	0.04651
11476.29492	0.04651
11472.43734	0.04651
11468.57977	0.04651
11464.72219	0.04651
11460.86461	0.04651
11457.00703	0.04651
11453.14945	-0.16569
11449.29187	0.11729
11445.43430	1.11913
11441.57672	1.11913
11437.71914	1.30297
11433.86156	-0.73565
11430.00398	-0.73565
11426.14641	-0.73565
11422.28883	-0.73565
11418.43125	-0.73565
11414.57367	-0.73565
11410.71609	-0.73565
11406.85852	-0.73565
11403.00094	-0.73565
11399.14336	-0.73565
11395.28578	1.57006
11391.42820	3.84860
11387.57062	3.84860
11383.71305	3.84860
11379.85547	3.84860
11375.99789	3.84860
11372.14031	3.84860
11368.28273	3.84860
11364.42516	3.84860
11360.56758	-0.80625
11356.71000	-0.80625
11352.85242	-1.77184
11348.99484	-0.68368
11345.13727	-0.90176
11341.27969	-0.22538
11337.42211	-0.67692
11333.56453	-0.71754
11329.70695	0.52507
11325.84937	1.40682
11321.99180	0.53501
11318.13422	-0.07681
11314.27664	0.35363
11310.41906	-0.22599
11306.56148	-0.39952
11302.70391	0.56471
11298.84633	1.80711
11294.98875	1.80711
11291.13117	1.80711
11287.27359	1.80711
11283.41602	0.52342
11279.55844	0.36138
11275.70086	0.36138
11271.84328	0.36138
11267.98570	-1.44180
11264.12812	-1.45237
11260.27055	-0.40054
11256.41297	0.33718
11252.55539	0.33718
11248.69781	0.33718
11244.84023	0.33718
11240.98266	0.26630
11237.12508	0.79147
11233.26750	0.66832
11229.40992	0.66832
11225.55234	0.66832
11221.69477	-0.19695
11217.83719	0.57091
11213.97961	0.15605
11210.12203	0.47454
11206.26445	2.14352
11202.40687	2.14352
11198.54930	2.14352
11194.69172	2.14352
11190.83414	2.14352
11186.97656	2.14352
11183.11898	-0.51810
11179.26141	0.08958
11175.40383	0.16143
11171.54625	-0.29213
11167.68867	-1.74019
11163.83109	-0.49512
11159.97352	1.17483
11156.11594	2.59270
11152.25836	0.83812
11148.40078	1.07767
11144.54320	1.07767
11140.68562	1.07767
11136.82805	1.07767
11132.97047	1.07767
11129.11289	0.56645
11125.25531	2.18787
11121.39773	2.18787
11117.54016	2.18787
11113.68258	2.18787
11109.82500	2.18787
11105.96742	2.18787
11102.10984	2.18787
11098.25227	-0.40205
11094.39469	-1.05541
11090.53711	-1.05541
11086.67953	-1.05541
11082.82195	-1.05541
11078.96437	-0.22499
11075.10680	-0.04631
11071.24922	0.74746
11067.39164	0.74746
11063.53406	0.74746
11059.67648	0.74746
11055.81891	0.74746
11051.96133	0.74746
11048.10375	0.74746
11044.24617	0.74746
11040.38859	0.74746
11036.53102	0.74746
11032.67344	0.74746
11028.81586	0.74746
11024.95828	0.74746
11021.10070	1.58246
11017.24312	1.58246
11013.38555	1.58246
11009.52797	1.58246
11005.67039	1.58246
11001.81281	1.58246
10997.95523	1.58246
10994.09766	1.58246
10990.24008	1.58246
10986.38250	0.05894
10982.52492	0.24434
10978.66734	0.24434
10974.80977	0.24434
10970.95219	0.24434
10967.09461	0.24434
10963.23703	0.24434
10959.37945	0.24434
10955.52187	0.62457
10951.66430	0.36646
10947.80672	0.36646
10943.94914	0.36646
10940.09156	0.36646
10936.23398	0.36646
10932.37641	0.36646
10928.51883	3.08122
10924.66125	1.47597
10920.80367	1.47597
10916.94609	1.47597
10913.08852	-0.08093
10909.23094	0.39049
10905.37336	0.39049
10901.51578	0.39049
10897.65820	-1.19526
10893.80062	-1.19526
10889.94305	-1.19526
10886.08547	-0.10541
10882.22789	0.12720
10878.37031	1.82608
10874.51273	0.44693
10870.65516	0.73619
10866.79758	0.73619
10862.94000	2.76678
10859.08242	1.72881
10855.22484	1.72881
10851.36727	1.72881
10847.50969	-0.53088
10843.65211	0.64410
10839.79453	0.30157
10835.93695	0.30157
10832.07937	0.30157
10828.22180	0.30157
10824.36422	0.22780
10820.50664	-0.65735
10816.64906	-0.32258
10812.79148	0.77043
10808.93391	1.05973
10805.07633	0.79069
10801.21875	1.09676
10797.36117	1.09676
10793.50359	1.09676
10789.64602	1.09676
10785.78844	1.09676
10781.93086	1.09676
10778.07328	1.09676
10774.21570	1.09676
10770.35812	1.09676
10766.50055	1.09676
10762.64297	-0.81749
10758.78539	0.30932
10754.92781	0.46196
10751.07023	0.55907
10747.21266	0.55907
10743.35508	0.55907
10739.49750	0.55907
10735.63992	0.55907
10731.78234	0.55907
10727.92477	0.55907
10724.06719	0.55907
10720.20961	0.67095
10716.35203	1.70986
10712.49445	1.70986
10708.63687	1.70986
10704.77930	0.22830
10700.92172	0.39409
10697.06414	0.39409
10693.20656	0.39409
10689.34898	-0.81329
10685.49141	-0.72205
10681.63383	-0.72205
10677.77625	-0.72205
10673.91867	-0.72205
10670.06109	1.15374
10666.20352	1.21023
10662.34594	0.07351
10658.48836	0.07351
10654.63078	0.07351
10650.77320	0.71494
10646.91562	0.71494
10643.05805	0.71494
10639.20047	0.05527
10635.34289	-0.40809
10631.48531	0.17886
10627.62773	0.48388
10623.77016	1.15409
10619.91258	1.35000
10616.05500	1.47357
10612.19742	1.62342
10608.33984	0.92286
10604.48227	1.00363
10600.62469	1.00363
10596.76711	1.89374
10592.90953	1.02619
10589.05195	0.73178
10585.19437	0.90879
10581.33680	0.90879
10577.47922	-0.04289
10573.62164	0.08222
10569.76406	0.94361
10565.90648	0.36739
10562.04891	-1.21949
10558.19133	0.26248
10554.33375	1.25917
10550.47617	1.25917
10546.61859	1.25917
10542.76102	1.25917
10538.90344	6.56428
10535.04586	4.32290
10531.18828	4.32290
10527.33070	-0.58606
10523.47312	-0.28177
10519.61555	-0.28177
10515.75797	-0.28177
10511.90039	-0.28177
10508.04281	-0.28177
10504.18523	-0.28177
10500.32766	1.23581
10496.47008	-0.27211
10492.61250	-0.50779
10488.75492	0.05987
10484.89734	0.05987
10481.03977	0.05987
10477.18219	0.05987
10473.32461	0.05987
10469.46703	0.05987
10465.60945	0.05987
10461.75187	0.05987
10457.89430	0.05987
10454.03672	1.37666
10450.17914	1.37666
10446.32156	-1.44772
10442.46398	0.08551
10438.60641	0.08551
10434.74883	0.08551
10430.89125	0.80080
10427.03367	0.80080
10423.17609	0.80080
10419.31852	0.81433
10415.46094	0.96522
10411.60336	0.78682
10407.74578	0.78682
10403.88820	0.78682
10400.03062	0.78682
10396.17305	0.78682
10392.31547	0.78682
10388.45789	0.78682
10384.60031	0.78682
10380.74273	0.78682
10376.88516	0.20955
10373.02758	0.20955
10369.17000	2.70536
10365.31242	0.66180
10361.45484	0.66180
10357.59727	0.66180
10353.73969	1.40655
10349.88211	0.20436
10346.02453	0.20436
10342.16695	0.20436
10338.30937	0.91412
10334.45180	0.53966
10330.59422	2.45719
10326.73664	2.45719
10322.87906	2.45719
10319.02148	-3.03717
10315.16391	-2.07310
10311.30633	-2.07310
10307.44875	-2.07310
10303.59117	-2.07310
10299.73359	-2.07310
10295.87602	0.60041
10292.01844	-0.17840
10288.16086	-0.96135
10284.30328	-0.96135
10280.44570	-2.39052
10276.58812	-1.28439
10272.73055	-1.28439
10268.87297	-1.28439
10265.01539	-1.28439
10261.15781	-1.28439
10257.30023	-1.28439
10253.44266	0.03084
10249.58508	1.59613
10245.72750	1.59613
10241.86992	1.59613
10238.01234	1.59613
10234.15477	1.59613
10230.29719	1.22532
10226.43961	1.17552
10222.58203	2.45268
10218.72445	1.92801
10214.86687	0.23100
10211.00930	-0.70307
10207.15172	-1.52387
10203.29414	-1.52387
10199.43656	-1.52387
10195.57898	-1.52387
10191.72141	-1.52387
10187.86383	0.02144
10184.00625	0.02144
10180.14867	0.02144
10176.29109	0.02144
10172.43352	0.02144
10168.57594	-2.14697
10164.71836	-6.33146
10160.86078	-2.19130
10157.00320	-2.90674
10153.14562	-2.90674
10149.28805	-2.90674
10145.43047	-2.90674
10141.57289	-2.90674
10137.71531	-1.98325
10133.85773	-0.40665
10130.00016	-0.40665
10126.14258	-0.40665
10122.28500	-0.40665
10118.42742	-0.40665
10114.56984	-0.13838
10110.71227	0.56581
10106.85469	0.80679
10102.99711	-0.47226
10099.13953	-1.52512
10095.28195	-1.49777
10091.42437	-1.48263
10087.56680	-1.48263
10083.70922	-2.46305
10079.85164	0.02219
10075.99406	0.60956
10072.13648	0.60956
10068.27891	1.33380
10064.42133	-0.06137
10060.56375	0.02914
10056.70617	0.50067
10052.84859	0.50067
10048.99102	0.50067
10045.13344	0.50067
10041.27586	-0.34897
10037.41828	-0.40931
10033.56070	0.23506
10029.70312	1.04869
10025.84555	-0.00694
10021.98797	-0.00694
10018.13039	-0.00694
10014.27281	2.68374
10010.41523	1.27074
10006.55766	0.15370
10002.70008	0.15370
9998.84250	0.15370
9994.98492	0.15370
9991.12734	1.25749
9987.26977	-0.27363
9983.41219	0.13190
9979.55461	1.18177
9975.69703	1.18177
9971.83945	1.18177
9967.98187	1.18177
9964.12430	1.18177
9960.26672	1.18177
9956.40914	1.87810
9952.55156	-0.02665
9948.69398	-1.13322
9944.83641	-0.44147
9940.97883	1.64454
9937.12125	1.64454
9933.26367	1.64454
9929.40609	1.64454
9925.54852	1.64454
9921.69094	1.64454
9917.83336	1.64454
9913.97578	0.75533
9910.11820	1.60372
9906.26062	1.60372
9902.40305	1.60372
9898.54547	1.60372
9894.68789	-0.73234
9890.83031	-0.83887
9886.97273	0.40336
9883.11516	0.21816
9879.25758	-0.06658
9875.40000	2.78722
9871.54242	2.78722
9867.68484	1.05039
9863.82727	-0.36145
9859.96969	-1.21986
9856.11211	-1.55039
9852.25453	-1.55039
9848.39695	1.29878
9844.53937	1.34980
9840.68180	1.34980
9836.82422	1.34980
9832.96664	1.34980
9829.10906	1.34980
9825.25148	1.34980
9821.39391	1.34980
9817.53633	1.34980
9813.67875	0.81534
9809.82117	0.89493
9805.96359	0.89493
9802.10602	0.89493
9798.24844	0.89493
9794.39086	0.89493
9790.53328	0.36320
9786.67570	1.91322
9782.81812	1.21276
9778.96055	0.08019
9775.10297	0.08019
9771.24539	0.08019
9767.38781	-0.55716
9763.53023	-0.15820
9759.67266	0.50890
9755.81508	0.42137
9751.95750	-0.02899
9748.09992	0.96426
9744.24234	0.96426
9740.38477	0.96426
9736.52719	0.96426
9732.66961	0.96426
9728.81203	0.96426
9724.95445	1.67818
9721.09687	0.80742
9717.23930	0.21012
9713.38172	-0.87610
9709.52414	-0.16411
9705.66656	0.15003
9701.80898	0.10674
9697.95141	0.10674
9694.09383	0.10674
9690.23625	0.10674
9686.37867	2.34347
9682.52109	1.08956
9678.66352	1.86936
9674.80594	1.38313
9670.94836	0.17559
9667.09078	-1.21199
9663.23320	-1.21199
9659.37562	-3.70359
9655.51805	-0.68239
9651.66047	-0.29242
9647.80289	-0.11044
9643.94531	-0.30123
9640.08773	-0.30123
9636.23016	-0.30123
9632.37258	-0.30123
9628.51500	3.51320
9624.65742	5.43705
9620.79984	5.43705
9616.94227	5.43705
9613.08469	5.43705
9609.22711	5.43705
9605.36953	0.47369
9601.51195	2.41174
9597.65437	1.20370
9593.79680	0.67024
9589.93922	0.48928
9586.08164	1.06668
9582.22406	0.74382
9578.36648	-1.29348
9574.50891	-2.14041
9570.65133	-2.14041
9566.79375	-2.14041
9562.93617	-0.28915
9559.07859	-0.28915
9555.22102	-0.28915
9551.36344	8.39661
9547.50586	1.70376
9543.64828	-0.08140
9539.79070	-0.28760
9535.93312	-0.28760
9532.07555	-0.28760
9528.21797	-0.28760
9524.36039	-0.28760
9520.50281	-0.28760
9516.64523	-0.28760
9512.78766	0.45638
9508.93008	1.30115
9505.07250	1.30115
9501.21492	1.30115
9497.35734	0.50843
9493.49977	0.59125
9489.64219	1.18937
9485.78461	3.68342
9481.92703	3.68342
9478.06945	3.68342
9474.21187	3.68342
9470.35430	3.68342
9466.49672	3.68342
9462.63914	-1.51094
9458.78156	-2.21372
9454.92398	-2.21372
9451.06641	-2.21372
9447.20883	-2.21372
9443.35125	-2.21372
9439.49367	0.09439
9435.63609	-0.72777
9431.77852	-1.39904
9427.92094	-1.39904
9424.06336	-1.39904
9420.20578	2.23100
9416.34820	2.23100
9412.49062	2.23100
9408.63305	2.23100
9404.77547	-0.44450
9400.91789	-0.29440
9397.06031	0.15496
9393.20273	0.91662
9389.34516	2.27849
9385.48758	1.61538
9381.63000	1.35434
9377.77242	1.66351
9373.91484	0.87352
9370.05727	-0.41756
9366.19969	-0.36988
9362.34211	0.34761
9358.48453	0.34761
9354.62695	0.34761
9350.76937	0.34761
9346.91180	0.56064
9343.05422	1.06236
9339.19664	1.06236
9335.33906	1.06236
9331.48148	1.06236
9327.62391	1.06236
9323.76633	1.06236
9319.90875	1.06236
9316.05117	1.06236
9312.19359	0.46354
9308.33602	1.45539
9304.47844	4.51690
9300.62086	4.51690
9296.76328	0.18320
9292.90570	-0.17240
9289.04812	0.21234
9285.19055	0.46594
9281.33297	0.19040
9277.47539	0.48546
9273.61781	0.59046
9269.76023	0.71877
9265.90266	0.71877
9262.04508	0.71877
9258.18750	0.71877
9254.32992	0.71877
9250.47234	0.71877
9246.61477	0.71877
9242.75719	0.71877
9238.89961	0.71877
9235.04203	0.71877
9231.18445	0.71877
9227.32687	0.71877
9223.46930	0.71877
9219.61172	0.71877
9215.75414	0.71877
9211.89656	0.71877
9208.03898	2.10674
9204.18141	0.99309
9200.32383	-2.04087
9196.46625	-1.09544
9192.60867	0.40280
9188.75109	0.40280
9184.89352	0.40280
9181.03594	1.00189
9177.17836	1.01556
9173.32078	1.12789
9169.46320	0.48265
9165.60562	0.37261
9161.74805	0.37261
9157.89047	0.37261
9154.03289	0.37261
9150.17531	-3.28570
9146.31773	-2.33983
9142.46016	-0.77103
9138.60258	-0.17039
9134.74500	-0.06291
9130.88742	0.01836
9127.02984	0.52221
9123.17227	1.76984
9119.31469	1.76984
9115.45711	-1.81226
9111.59953	-0.18847
9107.74195	0.40771
9103.88437	0.09168
9100.02680	-0.19226
9096.16922	0.85720
9092.31164	1.51550
9088.45406	1.22299
9084.59648	1.22299
9080.73891	1.22299
9076.88133	0.54611
9073.02375	0.00464
9069.16617	0.30100
9065.30859	1.30010
9061.45102	1.30010
9057.59344	0.35017
9053.73586	-0.38216
9049.87828	-0.80572
9046.02070	-0.26566
9042.16312	0.38648
9038.30555	1.37796
9034.44797	1.29645
9030.59039	1.56453
9026.73281	-0.15619
9022.87523	-1.56148
9019.01766	-1.56148
9015.16008	-1.56148
9011.30250	-1.56148
9007.44492	-1.56148
9003.58734	1.38187
8999.72977	2.52698
8995.87219	0.34512
8992.01461	-0.58950
8988.15703	-0.58950
8984.29945	-0.58950
8980.44187	-0.58950
8976.58430	1.56196
8972.72672	0.25109
8968.86914	0.16589
8965.01156	0.16589
8961.15398	0.24265
8957.29641	1.05316
8953.43883	1.05316
8949.58125	1.74452
8945.72367	1.74452
8941.86609	1.74452
8938.00852	1.74452
8934.15094	1.74452
8930.29336	1.74452
8926.43578	1.74452
8922.57820	1.74452
8918.72062	1.74452
8914.86305	1.17613
8911.00547	0.50675
8907.14789	0.15294
8903.29031	0.40050
8899.43273	1.43733
8895.57516	1.97241
8891.71758	0.48026
8887.86000	0.05215
8884.00242	0.15306
8880.14484	0.18219
8876.28727	0.24995
8872.42969	0.34350
8868.57211	0.51484
8864.71453	1.65183
8860.85695	3.54995
8856.99937	1.76466
8853.14180	0.31057
8849.28422	-0.93956
8845.42664	-0.66327
8841.56906	0.00659
8837.71148	0.26414
8833.85391	0.43822
8829.99633	0.39666
8826.13875	-0.38180
8822.28117	-0.32895
8818.42359	-0.35107
8814.56602	-0.75927
8810.70844	-0.71351
8806.85086	-0.18086
8802.99328	-0.26712
8799.13570	-0.74432
8795.27812	-1.58654
8791.42055	-1.55382
8787.56297	-0.15823
8783.70539	0.66335
8779.84781	1.24361
8775.99023	1.00031
8772.13266	0.66836
8768.27508	0.46538
8764.41750	0.17845
8760.55992	-0.52596
8756.70234	2.23841
8752.84477	0.77295
8748.98719	0.22485
8745.12961	0.61215
8741.27203	0.90997
8737.41445	-0.13430
8733.55687	0.57154
8729.69930	0.61399
8725.84172	0.31116
8721.98414	0.29618
8718.12656	0.62663
8714.26898	1.04708
8710.41141	1.05641
8706.55383	0.51410
8702.69625	-0.16183
8698.83867	-0.11209
8694.98109	0.49286
8691.12352	2.10865
8687.26594	2.88667
8683.40836	2.04233
8679.55078	1.54878
8675.69320	1.35643
8671.83562	1.92285
8667.97805	0.72866
8664.12047	0.27059
8660.26289	-0.30143
8656.40531	-0.57709
8652.54773	1.25628
8648.69016	2.11780
8644.83258	2.79387
8640.97500	0.91483
8637.11742	0.50227
8633.25984	0.36334
8629.40227	0.67901
8625.54469	0.63238
8621.68711	0.01213
8617.82953	0.05455
8613.97195	0.21237
8610.11437	0.28954
8606.25680	0.50258
8602.39922	0.56265
8598.54164	0.48429
8594.68406	0.25423
8590.82648	1.08822
8586.96891	1.33444
8583.11133	0.77491
8579.25375	0.99026
8575.39617	0.69901
8571.53859	0.29719
8567.68102	0.69520
8563.82344	0.53742
8559.96586	0.27536
8556.10828	0.29114
8552.25070	0.21009
8548.39312	0.71180
8544.53555	1.18387
8540.67797	0.08543
8536.82039	0.07117
8532.96281	0.51909
8529.10523	0.98446
8525.24766	0.45366
8521.39008	0.13146
8517.53250	0.17116
8513.67492	0.02154
8509.81734	0.20422
8505.95977	-0.27096
8502.10219	0.32057
8498.24461	0.83565
8494.38703	0.42605
8490.52945	-0.02197
8486.67187	-0.15352
8482.81430	0.15244
8478.95672	1.82131
8475.09914	-0.07510
8471.24156	-0.44818
8467.38398	0.40288
8463.52641	0.40288
8459.66883	0.40288
8455.81125	0.40288
8451.95367	0.40288
8448.09609	0.40288
8444.23852	0.40288
8440.38094	0.40288
8436.52336	0.19981
8432.66578	0.19981
8428.80820	0.19981
8424.95062	0.19981
8421.09305	0.19981
8417.23547	0.19981
8413.37789	0.19981
8409.52031	0.19981
8405.66273	0.19981
8401.80516	0.19981
8397.94758	0.19981
8394.09000	0.19981
8390.23242	0.19981
8386.37484	0.19981
8382.51727	0.19981
8378.65969	0.19981
8374.80211	0.19981
8370.94453	0.19981
8367.08695	0.19981
8363.22937	0.19981
8359.37180	0.19981
8355.51422	0.19981
8351.65664	0.19981
8347.79906	0.19981
8343.94148	0.19981
8340.08391	0.19981
8336.22633	0.19981
8332.36875	0.19981
8328.51117	0.19981
8324.65359	0.19981
8320.79602	0.19981
8316.93844	0.19981
8313.08086	0.19981
8309.22328	0.19981
8305.36570	0.19981
8301.50812	0.19981
8297.65055	0.19981
8293.79297	0.19981
8289.93539	4.84397
8286.07781	0.73966
8282.22023	0.20217
8278.36266	0.45413
8274.50508	0.61797
8270.64750	0.61797
8266.78992	0.78858
8262.93234	0.70117
8259.07477	0.40405
8255.21719	0.03301
8251.35961	2.57456
8247.50203	-0.88762
8243.64445	-0.13160
8239.78687	-0.04973
8235.92930	-1.30934
8232.07172	0.09646
8228.21414	0.85909
8224.35656	0.15609
8220.49898	0.56899
8216.64141	0.56899
8212.78383	-0.04453
8208.92625	0.05321
8205.06867	-0.76359
8201.21109	-0.76359
8197.35352	-0.99652
8193.49594	-0.15000
8189.63836	-1.15493
8185.78078	-1.08122
8181.92320	-0.05400
8178.06562	-0.05400
8174.20805	-0.05400
8170.35047	0.93230
8166.49289	0.68905
8162.63531	0.90294
8158.77773	0.84108
8154.92016	1.11705
8151.06258	1.17424
8147.20500	-0.04840
8143.34742	0.17777
8139.48984	-1.23564
8135.63227	-0.45221
8131.77469	0.82362
8127.91711	0.62247
8124.05953	1.18156
8120.20195	1.18156
8116.34437	1.18156
8112.48680	1.18156
8108.62922	-2.21687
8104.77164	-0.20035
8100.91406	0.40263
8097.05648	0.57120
8093.19891	0.30658
8089.34133	0.30658
8085.48375	-0.19563
8081.62617	0.55513
8077.76859	1.36290
8073.91102	0.09707
8070.05344	0.28234
8066.19586	0.89768
8062.33828	2.47570
8058.48070	2.47570
8054.62312	2.47570
8050.76555	2.47570
8046.90797	0.33433
8043.05039	0.25906
8039.19281	0.47473
8035.33523	0.47473
8031.47766	0.51467
8027.62008	0.20457
8023.76250	0.20457
8019.90492	0.20457
8016.04734	0.20457
8012.18977	0.20457
8008.33219	0.15055
8004.47461	0.30722
8000.61703	1.74726
7996.75945	1.74726
7992.90187	1.74726
7989.04430	0.71221
7985.18672	0.33893
7981.32914	0.13800
7977.47156	-0.86628
7973.61398	-0.48845
7969.75641	0.28111
7965.89883	1.11754
7962.04125	-0.52648
7958.18367	-0.52434
7954.32609	0.20327
7950.46852	0.63744
7946.61094	1.19921
7942.75336	1.64415
7938.89578	0.12276
7935.03820	0.41506
7931.18062	0.72319
7927.32305	0.97953
7923.46547	0.97953
7919.60789	0.97953
7915.75031	0.97953
7911.89273	0.97953
7908.03516	0.97997
7904.17758	0.47308
7900.32000	0.52492
7896.46242	0.52492
7892.60484	0.52492
7888.74727	0.17403
7884.88969	0.17403
7881.03211	0.17403
7877.17453	0.30750
7873.31695	0.06395
7869.45937	0.05161
7865.60180	0.12785
7861.74422	0.12785
7857.88664	0.12785
7854.02906	4.34136
7850.17148	4.34136
7846.31391	1.03460
7842.45633	0.27499
7838.59875	0.38362
7834.74117	0.57442
7830.88359	0.39220
7827.02602	0.27759
7823.16844	0.37614
7819.31086	0.52245
7815.45328	0.78926
7811.59570	0.36456
7807.73812	0.06554
7803.88055	0.52156
7800.02297	0.65536
7796.16539	0.73342
7792.30781	0.87948
7788.45023	0.54756
7784.59266	0.31312
7780.73508	0.47292
7776.87750	0.51415
7773.01992	0.47811
7769.16234	0.73683
7765.30477	0.65215
7761.44719	0.19938
7757.58961	0.32782
7753.73203	0.55164
7749.87445	0.42533
7746.01687	0.45989
7742.15930	0.50710
7738.30172	0.46919
7734.44414	0.39388
7730.58656	0.44302
7726.72898	0.61302
7722.87141	0.50189
7719.01383	0.05797
7715.15625	0.16506
7711.29867	0.43945
7707.44109	0.67263
7703.58352	0.78631
7699.72594	0.65711
7695.86836	0.40414
7692.01078	0.42408
7688.15320	0.57083
7684.29562	0.56656
7680.43805	0.47363
7676.58047	0.55092
7672.72289	0.44840
7668.86531	0.15532
7665.00773	0.34174
7661.15016	0.69510
7657.29258	0.74172
7653.43500	0.82188
7649.57742	0.65701
7645.71984	0.34550
7641.86227	0.34459
7638.00469	0.31855
7634.14711	0.35321
7630.28953	0.50418
7626.43195	0.36997
7622.57437	0.21981
7618.71680	0.34747
7614.85922	0.36307
7611.00164	0.33960
7607.14406	0.34068
7603.28648	0.28469
7599.42891	0.34358
7595.57133	0.52547
7591.71375	0.58728
7587.85617	0.55706
7583.99859	0.44214
7580.14102	0.13768
7576.28344	0.09356
7572.42586	0.27145
7568.56828	0.43268
7564.71070	0.54333
7560.85312	0.54507
7556.99555	0.49555
7553.13797	0.38495
7549.28039	0.35779
7545.42281	0.56554
7541.56523	0.68810
7537.70766	0.45658
7533.85008	0.25793
7529.99250	0.30282
7526.13492	0.53966
7522.27734	0.53706
7518.41977	0.40545
7514.56219	0.46713
7510.70461	0.60687
7506.84703	0.80983
7502.98945	0.75803
7499.13187	0.44716
7495.27430	0.37157
7491.41672	0.49059
7487.55914	0.60079
7483.70156	0.66353
7479.84398	0.58089
7475.98641	0.44338
7472.12883	0.35775
7468.27125	0.57585
7464.41367	0.78445
7460.55609	0.65938
7456.69852	0.52003
7452.84094	0.53107
7448.98336	0.61683
7445.12578	0.52511
7441.26820	0.25658
7437.41062	0.17180
7433.55305	0.31432
7429.69547	0.37504
7425.83789	0.35722
7421.98031	0.44345
7418.12273	0.44475
7414.26516	0.35452
7410.40758	0.35427
7406.55000	0.28675
7402.69242	0.24268
7398.83484	0.36743
7394.97727	0.36470
7391.11969	0.31969
7387.26211	0.28351
7383.40453	0.20091
7379.54695	0.24099
7375.68937	0.33544
7371.83180	0.43400
7367.97422	0.48186
7364.11664	0.43042
7360.25906	0.42992
7356.40148	0.49628
7352.54391	0.43151
7348.68633	0.27944
7344.82875	0.30993
7340.97117	0.40179
7337.11359	0.39777
7333.25602	0.47096
7329.39844	0.52334
7325.54086	0.40408
7321.68328	0.33125
7317.82570	0.29830
7313.96812	0.35246
7310.11055	0.44799
7306.25297	0.37125
7302.39539	0.29851
7298.53781	0.21545
7294.68023	0.20466
7290.82266	0.39617
7286.96508	0.44990
7283.10750	0.47266
7279.24992	0.54089
7275.39234	0.49704
7271.53477	0.53111
7267.67719	0.61383
7263.81961	0.50920
7259.96203	0.39280
7256.10445	0.44477
7252.24687	0.42490
7248.38930	0.28605
7244.53172	0.27367
7240.67414	0.39669
7236.81656	0.48870
7232.95898	0.44251
7229.10141	0.40298
7225.24383	0.41546
7221.38625	0.40165
7217.52867	0.36539
7213.67109	0.34119
7209.81352	0.36144
7205.95594	0.36137
7202.09836	0.33876
7198.24078	0.34284
7194.38320	0.35755
7190.52562	0.44194
7186.66805	0.46488
7182.81047	0.35779
7178.95289	0.37062
7175.09531	0.43355
7171.23773	0.38502
7167.38016	0.32322
7163.52258	0.35277
7159.66500	0.38047
7155.80742	0.34743
7151.94984	0.31067
7148.09227	0.33914
7144.23469	0.38844
7140.37711	0.33034
7136.51953	0.32874
7132.66195	0.37619
7128.80437	0.36183
7124.94680	0.44934
7121.08922	0.50608
7117.23164	0.35454
7113.37406	0.28133
7109.51648	0.29988
7105.65891	0.34763
7101.80133	0.39202
7097.94375	0.43377
7094.08617	0.44308
7090.22859	0.35742
7086.37102	0.32463
7082.51344	0.40847
7078.65586	0.46290
7074.79828	0.49503
7070.94070	0.47655
7067.08312	0.41586
7063.22555	0.43734
7059.36797	0.44856
7055.51039	0.45972
7051.65281	0.51365
7047.79523	0.43616
7043.93766	0.37223
7040.08008	0.45275
7036.22250	0.50456
7032.36492	0.47779
7028.50734	0.43787
7024.64977	0.42410
7020.79219	0.49638
7016.93461	0.53877
7013.07703	0.45886
7009.21945	0.41617
7005.36187	0.42170
7001.50430	0.39449
6997.64672	0.37269
6993.78914	0.42728
6989.93156	0.50730
6986.07398	0.47084
6982.21641	0.40955
6978.35883	0.43087
6974.50125	0.42335
6970.64367	0.41592
6966.78609	0.42767
6962.92852	0.38634
6959.07094	0.40924
6955.21336	0.47126
6951.35578	0.47091
6947.49820	0.46118
6943.64062	0.41741
6939.78305	0.36737
6935.92547	0.37916
6932.06789	0.39070
6928.21031	0.37751
6924.35273	0.40181
6920.49516	0.41617
6916.63758	0.37563
6912.78000	0.38091
6908.92242	0.41948
6905.06484	0.43693
6901.20727	0.44514
6897.34969	0.39487
6893.49211	0.36675
6889.63453	0.41158
6885.77695	0.38671
6881.91937	0.31808
6878.06180	0.34616
6874.20422	0.41353
6870.34664	0.41061
6866.48906	0.39811
6862.63148	0.40380
6858.77391	0.41148
6854.91633	0.42977
6851.05875	0.40365
6847.20117	0.35759
6843.34359	0.34548
6839.48602	0.35722
6835.62844	0.38988
6831.77086	0.41095
6827.91328	0.42563
6824.05570	0.42155
6820.19812	0.38485
6816.34055	0.41145
6812.48297	0.45579
6808.62539	0.41297
6804.76781	0.36470
6800.91023	0.38366
6797.05266	0.44031
6793.19508	0.47270
6789.33750	0.45447
6785.47992	0.44148
6781.62234	0.44792
6777.76477	0.40476
6773.90719	0.37529
6770.04961	0.40824
6766.19203	0.43636
6762.33445	0.41827
6758.47687	0.38569
6754.61930	0.38463
6750.76172	0.42426
6746.90414	0.43008
6743.04656	0.39663
6739.18898	0.37979
6735.33141	0.37972
6731.47383	0.39430
6727.61625	0.40872
6723.75867	0.40791
6719.90109	0.40250
6716.04352	0.38217
6712.18594	0.37705
6708.32836	0.38877
6704.47078	0.36962
6700.61320	0.34222
6696.75562	0.33867
6692.89805	0.35987
6689.04047	0.37443
6685.18289	0.36340
6681.32531	0.36535
6677.46773	0.38274
6673.61016	0.41013
6669.75258	0.44595
6665.89500	0.45032
6662.03742	0.41234
6658.17984	0.37510
6654.32227	0.37305
6650.46469	0.37843
6646.60711	0.38012
6642.74953	0.38837
6638.89195	0.37400
6635.03437	0.36870
6631.17680	0.38676
6627.31922	0.39825
6623.46164	0.41874
6619.60406	0.42736
6615.74648	0.41696
6611.88891	0.39156
6608.03133	0.35688
6604.17375	0.36860
6600.31617	0.38232
6596.45859	0.37509
6592.60102	0.38868
6588.74344	0.38157
6584.88586	0.38333
6581.02828	0.40044
6577.17070	0.38005
6573.31312	0.37957
6569.45555	0.38826
6565.59797	0.35561
6561.74039	0.34066
6557.88281	0.38269
6554.02523	0.43887
6550.16766	0.44366
6546.31008	0.40957
6542.45250	0.38561
6538.59492	0.36747
6534.73734	0.35888
6530.87977	0.38122
6527.02219	0.41168
6523.16461	0.41788
6519.30703	0.41483
6515.44945	0.41367
6511.59187	0.39319
6507.73430	0.37457
6503.87672	0.36275
6500.01914	0.35226
6496.16156	0.36104
6492.30398	0.35263
6488.44641	0.35013
6484.58883	0.37085
6480.73125	0.36347
6476.87367	0.36120
6473.01609	0.36420
6469.15852	0.36601
6465.30094	0.41055
6461.44336	0.44492
6457.58578	0.42502
6453.72820	0.38834
6449.87062	0.36377
6446.01305	0.36630
6442.15547	0.40089
6438.29789	0.42742
6434.44031	0.41109
6430.58273	0.40104
6426.72516	0.40764
6422.86758	0.38455
6419.01000	0.36284
6415.15242	0.38888
6411.29484	0.41323
6407.43727	0.39395
6403.57969	0.37917
6399.72211	0.38581
6395.86453	0.38141
6392.00695	0.38165
6388.14937	0.38625
6384.29180	0.37224
6380.43422	0.35935
6376.57664	0.36780
6372.71906	0.38595
6368.86148	0.38002
6365.00391	0.35947
6361.14633	0.37228
6357.28875	0.39247
6353.43117	0.38628
6349.57359	0.38142
6345.71602	0.39795
6341.85844	0.42335
6338.00086	0.42188
6334.14328	0.38360
6330.28570	0.36195
6326.42812	0.39773
6322.57055	0.42550
6318.71297	0.39587
6314.85539	0.37737
6310.99781	0.38129
6307.14023	0.38784
6303.28266	0.38438
6299.42508	0.35773
6295.56750	0.36744
6291.70992	0.39847
6287.85234	0.39184
6283.99477	0.38901
6280.13719	0.39146
6276.27961	0.38340
6272.42203	0.39190
6268.56445	0.39657
6264.70687	0.37889
6260.84930	0.37021
6256.99172	0.37940
6253.13414	0.38839
6249.27656	0.39617
6245.41898	0.39440
6241.56141	0.36840
6237.70383	0.35169
6233.84625	0.37586
6229.98867	0.39179
6226.13109	0.36931
6222.27352	0.35985
6218.41594	0.36069
6214.55836	0.35173
6210.70078	0.37124
6206.84320	0.40559
6202.98562	0.40450
6199.12805	0.37529
6195.27047	0.36311
6191.41289	0.36248
6187.55531	0.34623
6183.69773	0.35958
6179.84016	0.38861
6175.98258	0.39089
6172.12500	0.40281
6168.26742	0.41408
6164.40984	0.40190
6160.55227	0.38520
6156.69469	0.37890
6152.83711	0.38130
6148.97953	0.39135
6145.12195	0.40994
6141.26437	0.39401
6137.40680	0.35481
6133.54922	0.35749
6129.69164	0.37854
6125.83406	0.38060
6121.97648	0.38701
6118.11891	0.39815
6114.26133	0.38857
6110.40375	0.36758
6106.54617	0.36827
6102.68859	0.39337
6098.83102	0.39863
6094.97344	0.38042
6091.11586	0.38106
6087.25828	0.38285
6083.40070	0.37118
6079.54312	0.35775
6075.68555	0.35141
6071.82797	0.36565
6067.97039	0.36659
6064.11281	0.36480
6060.25523	0.38023
6056.39766	0.38006
6052.54008	0.38056
6048.68250	0.37727
6044.82492	0.36404
6040.96734	0.37742
6037.10977	0.39200
6033.25219	0.37809
6029.39461	0.35595
6025.53703	0.35404
6021.67945	0.37081
6017.82187	0.36991
6013.96430	0.35323
6010.10672	0.35041
6006.24914	0.36688
6002.39156	0.38753
5998.53398	0.38569
5994.67641	0.37611
5990.81883	0.38686
5986.96125	0.38000
5983.10367	0.34851
5979.24609	0.34882
5975.38852	0.36140
5971.53094	0.34991
5967.67336	0.35143
5963.81578	0.38014
5959.95820	0.40331
5956.10062	0.38705
5952.24305	0.35762
5948.38547	0.35666
5944.52789	0.36440
5940.67031	0.36272
5936.81273	0.35016
5932.95516	0.34990
5929.09758	0.37340
5925.24000	0.36954
5921.38242	0.36040
5917.52484	0.37631
5913.66727	0.37029
5909.80969	0.35986
5905.95211	0.37191
5902.09453	0.38048
5898.23695	0.37254
5894.37937	0.35719
5890.52180	0.35705
5886.66422	0.36969
5882.80664	0.37527
5878.94906	0.36878
5875.09148	0.36292
5871.23391	0.37186
5867.37633	0.37229
5863.51875	0.35328
5859.66117	0.34803
5855.80359	0.35828
5851.94602	0.36714
5848.08844	0.37656
5844.23086	0.37904
5840.37328	0.37550
5836.51570	0.38075
5832.65812	0.38052
5828.80055	0.36735
5824.94297	0.36341
5821.08539	0.36532
5817.22781	0.36554
5813.37023	0.37792
5809.51266	0.38181
5805.65508	0.36185
5801.79750	0.36422
5797.93992	0.38907
5794.08234	0.39017
5790.22477	0.37692
5786.36719	0.36851
5782.50961	0.36985
5778.65203	0.37565
5774.79445	0.37712
5770.93687	0.38239
5767.07930	0.37860
5763.22172	0.36793
5759.36414	0.36659
5755.50656	0.36308
5751.64898	0.36341
5747.79141	0.36928
5743.93383	0.36640
5740.07625	0.36338
5736.21867	0.36708
5732.36109	0.37025
5728.50352	0.37167
5724.64594	0.37223
5720.78836	0.36497
5716.93078	0.35312
5713.07320	0.34503
5709.21562	0.34808
5705.35805	0.36545
5701.50047	0.37448
5697.64289	0.36544
5693.78531	0.36142
5689.92773	0.37165
5686.07016	0.37198
5682.21258	0.35454
5678.35500	0.35103
5674.49742	0.35899
5670.63984	0.36265
5666.78227	0.37133
5662.92469	0.36810
5659.06711	0.35153
5655.20953	0.34871
5651.35195	0.35576
5647.49437	0.36247
5643.63680	0.36242
5639.77922	0.35725
5635.92164	0.36298
5632.06406	0.36922
5628.20648	0.36323
5624.34891	0.36272
5620.49133	0.36882
5616.63375	0.36602
5612.77617	0.35992
5608.91859	0.35959
5605.06102	0.36203
5601.20344	0.36388
5597.34586	0.35574
5593.48828	0.34705
5589.63070	0.36123
5585.77312	0.37205
5581.91555	0.35565
5578.05797	0.34250
5574.20039	0.34530
5570.34281	0.35282
5566.48523	0.35824
5562.62766	0.36218
5558.77008	0.36255
5554.91250	0.36107
5551.05492	0.37074
5547.19734	0.37183
5543.33977	0.35831
5539.48219	0.35620
5535.62461	0.35818
5531.76703	0.36206
5527.90945	0.37250
5524.05187	0.37844
5520.19430	0.37828
5516.33672	0.37034
5512.47914	0.35753
5508.62156	0.34822
5504.76398	0.34959
5500.90641	0.35892
5497.04883	0.36244
5493.19125	0.36192
5489.33367	0.36732
5485.47609	0.37008
5481.61852	0.36463
5477.76094	0.35805
5473.90336	0.35900
5470.04578	0.36190
5466.18820	0.35466
5462.33062	0.34711
5458.47305	0.35192
5454.61547	0.35469
5450.75789	0.35172
5446.90031	0.35741
5443.04273	0.36585
5439.18516	0.35811
5435.32758	0.34825
5431.47000	0.35103
5427.61242	0.35361
5423.75484	0.35403
5419.89727	0.35558
5416.03969	0.35228
5412.18211	0.35585
5408.32453	0.36521
5404.46695	0.36056
5400.60937	0.35380
5396.75180	0.36182
5392.89422	0.36850
5389.03664	0.35552
5385.17906	0.34277
5381.32148	0.34673
5377.46391	0.35179
5373.60633	0.35208
5369.74875	0.35788
5365.89117	0.36392
5362.03359	0.35860
5358.17602	0.35047
5354.31844	0.34990
5350.46086	0.35041
5346.60328	0.34889
5342.74570	0.35124
5338.88812	0.35071
5335.03055	0.34695
5331.17297	0.34783
5327.31539	0.34779
5323.45781	0.34568
5319.60023	0.34885
5315.74266	0.35585
5311.88508	0.35825
5308.02750	0.35341
5304.16992	0.35086
5300.31234	0.35404
5296.45477	0.35160
5292.59719	0.34540
5288.73961	0.34824
5284.88203	0.35440
5281.02445	0.35503
5277.16687	0.35820
5273.30930	0.36282
5269.45172	0.35730
5265.59414	0.34877
5261.73656	0.34711
5257.87898	0.34323
5254.02141	0.33925
5250.16383	0.34251
5246.30625	0.34599
5242.44867	0.34308
5238.59109	0.34178
5234.73352	0.34496
5230.87594	0.34704
5227.01836	0.35131
5223.16078	0.35577
5219.30320	0.35240
5215.44562	0.34813
5211.58805	0.34804
5207.73047	0.35321
5203.87289	0.35634
5200.01531	0.34953
5196.15773	0.34534
5192.30016	0.34637
5188.44258	0.34352
5184.58500	0.34229
5180.72742	0.34126
5176.86984	0.34501
5173.01227	0.35832
5169.15469	0.36132
5165.29711	0.35501
5161.43953	0.35381
5157.58195	0.35425
5153.72437	0.35253
5149.86680	0.34713
5146.00922	0.34386
5142.15164	0.34732
5138.29406	0.34829
5134.43648	0.34669
5130.57891	0.35030
5126.72133	0.35376
5122.86375	0.35252
5119.00617	0.35248
5115.14859	0.35351
5111.29102	0.35105
5107.43344	0.34787
5103.57586	0.34818
5099.71828	0.35111
5095.86070	0.35227
5092.00312	0.35108
5088.14555	0.34818
5084.28797	0.34500
5080.43039	0.34677
5076.57281	0.35058
5072.71523	0.35254
5068.85766	0.35477
5065.00008	0.35322
5061.14250	0.34789
5057.28492	0.34867
5053.42734	0.35381
5049.56977	0.35067
5045.71219	0.34480
5041.85461	0.34744
5037.99703	0.35285
5034.13945	0.35620
5030.28187	0.35662
5026.42430	0.35343
5022.56672	0.34903
5018.70914	0.34739
5014.85156	0.35307
5010.99398	0.35890
5007.13641	0.36002
5003.27883	0.36046
4999.42125	0.35596
4995.56367	0.34982
4991.70609	0.34867
4987.84852	0.34951
4983.99094	0.35039
4980.13336	0.35100
4976.27578	0.35263
4972.41820	0.35094
4968.56062	0.34534
4964.70305	0.34776
4960.84547	0.35358
4956.98789	0.35163
4953.13031	0.34821
4949.27273	0.34811
4945.41516	0.35146
4941.55758	0.35628
4937.70000	0.35499
4933.84242	0.34940
4929.98484	0.34567
4926.12727	0.34399
4922.26969	0.34450
4918.41211	0.34756
4914.55453	0.35141
4910.69695	0.34974
4906.83937	0.34476
4902.98180	0.34507
4899.12422	0.34497
4895.26664	0.34527
4891.40906	0.35258
4887.55148	0.35526
4883.69391	0.35130
4879.83633	0.34843
4875.97875	0.34293
4872.12117	0.34156
4868.26359	0.34712
4864.40602	0.34514
4860.54844	0.34202
4856.69086	0.34706
4852.83328	0.34951
4848.97570	0.35087
4845.11812	0.35428
4841.26055	0.35317
4837.40297	0.35059
4833.54539	0.35124
4829.68781	0.35416
4825.83023	0.35508
4821.97266	0.35321
4818.11508	0.35370
4814.25750	0.35500
4810.39992	0.35043
4806.54234	0.34420
4802.68477	0.34820
4798.82719	0.35593
4794.96961	0.35384
4791.11203	0.35051
4787.25445	0.35318
4783.39687	0.35537
4779.53930	0.35387
4775.68172	0.35049
4771.82414	0.34995
4767.96656	0.35423
4764.10898	0.35704
4760.25141	0.35554
4756.39383	0.35363
4752.53625	0.34944
4748.67867	0.34577
4744.82109	0.34873
4740.96352	0.35071
4737.10594	0.34931
4733.24836	0.35091
4729.39078	0.35324
4725.53320	0.35325
4721.67562	0.35182
4717.81805	0.34941
4713.96047	0.34668
4710.10289	0.34534
4706.24531	0.34785
4702.38773	0.35127
4698.53016	0.35170
4694.67258	0.35139
4690.81500	0.34891
4686.95742	0.34397
4683.09984	0.34305
4679.24227	0.34501
4675.38469	0.34656
4671.52711	0.35014
4667.66953	0.35359
4663.81195	0.35230
4659.95437	0.34987
4656.09680	0.35087
4652.23922	0.35254
4648.38164	0.35184
4644.52406	0.35012
4640.66648	0.34929
4636.80891	0.34724
4632.95133	0.34596
4629.09375	0.35009
4625.23617	0.35342
4621.37859	0.35410
4617.52102	0.35635
4613.66344	0.35570
4609.80586	0.34988
4605.94828	0.34536
4602.09070	0.34816
4598.23312	0.35270
4594.37555	0.35335
4590.51797	0.35378
4586.66039	0.35350
4582.80281	0.35245
4578.94523	0.35222
4575.08766	0.35173
4571.23008	0.35126
4567.37250	0.35146
4563.51492	0.35282
4559.65734	0.35252
4555.79977	0.35048
4551.94219	0.35026
4548.08461	0.34985
4544.22703	0.34903
4540.36945	0.34967
4536.51187	0.35081
4532.65430	0.35193
4528.79672	0.35328
4524.93914	0.35515
4521.08156	0.35331
4517.22398	0.34741
4513.36641	0.34830
4509.50883	0.35349
4505.65125	0.34956
4501.79367	0.34384
4497.93609	0.34799
4494.07852	0.35409
4490.22094	0.35401
4486.36336	0.35253
4482.50578	0.35351
4478.64820	0.35329
4474.79062	0.35171
4470.93305	0.35261
4467.07547	0.35361
4463.21789	0.35233
4459.36031	0.35199
4455.50273	0.35346
4451.64516	0.35383
4447.78758	0.35299
4443.93000	0.35416
4440.07242	0.35596
4436.21484	0.35479
4432.35727	0.35301
4428.49969	0.35210
4424.64211	0.35211
4420.78453	0.35452
4416.92695	0.35641
4413.06937	0.35569
4409.21180	0.35284
4405.35422	0.34971
4401.49664	0.35122
4397.63906	0.35461
4393.78148	0.35288
4389.92391	0.35069
4386.06633	0.35403
4382.20875	0.35634
4378.35117	0.35375
4374.49359	0.35232
4370.63602	0.35323
4366.77844	0.35316
4362.92086	0.35291
4359.06328	0.35478
4355.20570	0.35628
4351.34812	0.35634
4347.49055	0.35673
4343.63297	0.35543
4339.77539	0.35454
4335.91781	0.35485
4332.06023	0.35368
4328.20266	0.35442
4324.34508	0.35598
4320.48750	0.35482
4316.62992	0.35355
4312.77234	0.35450
4308.91477	0.35529
4305.05719	0.35410
4301.19961	0.35409
4297.34203	0.35564
4293.48445	0.35590
4289.62687	0.35409
4285.76930	0.35219
4281.91172	0.35161
4278.05414	0.35129
4274.19656	0.35256
4270.33898	0.35502
4266.48141	0.35522
4262.62383	0.35366
4258.76625	0.35288
4254.90867	0.35317
4251.05109	0.35326
4247.19352	0.35360
4243.33594	0.35466
4239.47836	0.35535
4235.62078	0.35548
4231.76320	0.35503
4227.90562	0.35350
4224.04805	0.35384
4220.19047	0.35741
4216.33289	0.35761
4212.47531	0.35413
4208.61773	0.35365
4204.76016	0.35556
4200.90258	0.35649
4197.04500	0.35545
4193.18742	0.35419
4189.32984	0.35445
4185.47227	0.35591
4181.61469	0.35783
4177.75711	0.35789
4173.89953	0.35691
4170.04195	0.35672
4166.18437	0.35662
4162.32680	0.35625
4158.46922	0.35445
4154.61164	0.35377
4150.75406	0.35617
4146.89648	0.35689
4143.03891	0.35484
4139.18133	0.35449
4135.32375	0.35672
4131.46617	0.35700
4127.60859	0.35582
4123.75102	0.35662
4119.89344	0.35612
4116.03586	0.35476
4112.17828	0.35487
4108.32070	0.35457
4104.46312	0.35550
4100.60555	0.35683
4096.74797	0.35640
4092.89039	0.35701
4089.03281	0.35885
4085.17523	0.35890
4081.31766	0.35678
4077.46008	0.35536
4073.60250	0.35596
4069.74492	0.35665
4065.88734	0.35605
4062.02977	0.35561
4058.17219	0.35704
4054.31461	0.35857
4050.45703	0.35823
4046.59945	0.35645
4042.74187	0.35559
4038.88430	0.35718
4035.02672	0.35821
4031.16914	0.35774
4027.31156	0.35775
4023.45398	0.35732
4019.59641	0.35603
4015.73883	0.35525
4011.88125	0.35629
4008.02367	0.35871
4004.16609	0.35920
4000.30852	0.35887
3996.45094	0.36033
3992.59336	0.36006
3988.73578	0.35729
3984.87820	0.35614
3981.02062	0.35669
3977.16305	0.35739
3973.30547	0.35827
3969.44789	0.35872
3965.59031	0.35844
3961.73273	0.35816
3957.87516	0.35841
3954.01758	0.35904
3950.16000	0.35922
3946.30242	0.35938
3942.44484	0.35996
3938.58727	0.35933
3934.72969	0.35863
3930.87211	0.35906
3927.01453	0.35867
3923.15695	0.35799
3919.29937	0.35794
3915.44180	0.35731
3911.58422	0.35764
3907.72664	0.35964
3903.86906	0.36120
3900.01148	0.36091
3896.15391	0.36040
3892.29633	0.35945
3888.43875	0.36001
3884.58117	0.36146
3880.72359	0.36118
3876.86602	0.36073
3873.00844	0.36061
3869.15086	0.35884
3865.29328	0.35648
3861.43570	0.35749
3857.57812	0.35848
3853.72055	0.35694
3849.86297	0.35856
3846.00539	0.35974
3842.14781	0.35977
3838.29023	0.35918
3834.43266	0.35779
3830.57508	0.35974
3826.71750	0.36178
3822.85992	0.36026
3819.00234	0.35959
3815.14477	0.36043
3811.28719	0.36041
3807.42961	0.36047
3803.57203	0.35980
3799.71445	0.36066
3795.85687	0.36255
3791.99930	0.36254
3788.14172	0.36172
3784.28414	0.36087
3780.42656	0.36069
3776.56898	0.36158
3772.71141	0.36161
3768.85383	0.36032
3764.99625	0.35974
3761.13867	0.36056
3757.28109	0.36238
3753.42352	0.36379
3749.56594	0.36301
3745.70836	0.36187
3741.85078	0.36012
3737.99320	0.35530
3734.13562	0.35314
3730.27805	0.35685
3726.42047	0.35883
3722.56289	0.36066
3718.70531	0.36094
3714.84773	0.36032
3710.99016	0.35995
3707.13258	0.35905
3703.27500	0.35976
3699.41742	0.36079
3695.55984	0.35924
3691.70227	0.35789
3687.84469	0.35950
3683.98711	0.36047
3680.12953	0.36057
3676.27195	0.35962
3672.41437	0.35941
3668.55680	0.36156
3664.69922	0.36216
3660.84164	0.36115
3656.98406	0.36013
3653.12648	0.35929
3649.26891	0.35948
3645.41133	0.36171
3641.55375	0.36087
3637.69617	0.35830
3633.83859	0.35739
3629.98102	0.35760
3626.12344	0.35822
3622.26586	0.35877
3618.40828	0.35917
3614.55070	0.36077
3610.69312	0.36113
3606.83555	0.35971
3602.97797	0.35890
3599.12039	0.35860
3595.26281	0.35934
3591.40523	0.35975
3587.54766	0.35919
3583.69008	0.35965
3579.83250	0.36026
3575.97492	0.36031
3572.11734	0.36036
3568.25977	0.36085
3564.40219	0.36084
3560.54461	0.36026
3556.68703	0.36088
3552.82945	0.36148
3548.97187	0.36083
3545.11430	0.36101
3541.25672	0.36124
3537.39914	0.36070
3533.54156	0.36104
3529.68398	0.36182
3525.82641	0.36153
3521.96883	0.36122
3518.11125	0.36197
3514.25367	0.36262
3510.39609	0.36291
3506.53852	0.36275
3502.68094	0.36201
3498.82336	0.36221
3494.96578	0.36256
3491.10820	0.36248
3487.25062	0.36275
3483.39305	0.36251
3479.53547	0.36229
3475.67789	0.36270
3471.82031	0.36297
3467.96273	0.36307
3464.10516	0.36317
3460.24758	0.36327
3456.39000	0.36331
3452.53242	0.36327
3448.67484	0.36274
3444.81727	0.36251
3440.95969	0.36328
3437.10211	0.36366
3433.24453	0.36389
3429.38695	0.36382
3425.52937	0.36320
3421.67180	0.36375
3417.81422	0.36455
3413.95664	0.36417
3410.09906	0.36378
3406.24148	0.36399
3402.38391	0.36413
3398.52633	0.36418
3394.66875	0.36442
3390.81117	0.36462
3386.95359	0.36540
3383.09602	0.36575
3379.23844	0.36451
3375.38086	0.36391
3371.52328	0.36439
3367.66570	0.36483
3363.80812	0.36533
3359.95055	0.36544
3356.09297	0.36484
3352.23539	0.36453
3348.37781	0.36482
3344.52023	0.36498
3340.66266	0.36531
3336.80508	0.36590
3332.94750	0.36599
3329.08992	0.36559
3325.23234	0.36520
3321.37477	0.36545
3317.51719	0.36586
3313.65961	0.36585
3309.80203	0.36557
3305.94445	0.36561
3302.08687	0.36598
3298.22930	0.36601
3294.37172	0.36643
3290.51414	0.36667
3286.65656	0.36592
3282.79898	0.36557
3278.94141	0.36580
3275.08383	0.36607
3271.22625	0.36622
3267.36867	0.36620
3263.51109	0.36621
3259.65352	0.36600
3255.79594	0.36586
3251.93836	0.36607
3248.08078	0.36604
3244.22320	0.36618
3240.36562	0.36687
3236.50805	0.36706
3232.65047	0.36686
3228.79289	0.36693
3224.93531	0.36653
3221.07773	0.36596
3217.22016	0.36606
3213.36258	0.36632
3209.50500	0.36624
3205.64742	0.36627
3201.78984	0.36682
3197.93227	0.36701
3194.07469	0.36623
3190.21711	0.36570
3186.35953	0.36605
3182.50195	0.36640
3178.64437	0.36637
3174.78680	0.36642
3170.92922	0.36705
3167.07164	0.36772
3163.21406	0.36728
3159.35648	0.36650
3155.49891	0.36663
3151.64133	0.36713
3147.78375	0.36710
3143.92617	0.36642
3140.06859	0.36608
3136.21102	0.36644
3132.35344	0.36636
3128.49586	0.36630
3124.63828	0.36686
3120.78070	0.36709
3116.92312	0.36736
3113.06555	0.36760
3109.20797	0.36724
3105.35039	0.36715
3101.49281	0.36689
3097.63523	0.36645
3093.77766	0.36679
3089.92008	0.36708
3086.06250	0.36716
3082.20492	0.36721
3078.34734	0.36678
3074.48977	0.36637
3070.63219	0.36633
3066.77461	0.36622
3062.91703	0.36617
3059.05945	0.36631
3055.20187	0.36634
3051.34430	0.36656
3047.48672	0.36667
3043.62914	0.36600
3039.77156	0.36579
3035.91398	0.36627
3032.05641	0.36630
3028.19883	0.36612
3024.34125	0.36617
3020.48367	0.36635
3016.62609	0.36637
3012.76852	0.36593
3008.91094	0.36556
3005.05336	0.36566
3001.19578	0.36591
2997.33820	0.36584
2993.48062	0.36550
2989.62305	0.36526
2985.76547	0.36506
2981.90789	0.36529
2978.05031	0.36555
2974.19273	0.36512
2970.33516	0.36487
2966.47758	0.36484
2962.62000	0.36458
2958.76242	0.36466
2954.90484	0.36452
2951.04727	0.36414
2947.18969	0.36427
2943.33211	0.36459
2939.47453	0.36507
2935.61695	0.36530
2931.75937	0.36468
2927.90180	0.36391
2924.04422	0.36348
2920.18664	0.36330
2916.32906	0.36325
2912.47148	0.36360
2908.61391	0.36438
2904.75633	0.36454
2900.89875	0.36438
2897.04117	0.36458
2893.18359	0.36452
2889.32602	0.36428
2885.46844	0.36427
2881.61086	0.36431
2877.75328	0.36436
2873.89570	0.36438
2870.03812	0.36439
2866.18055	0.36419
2862.32297	0.36396
2858.46539	0.36405
2854.60781	0.36411
2850.75023	0.36411
2846.89266	0.36426
2843.03508	0.36469
2839.17750	0.36511
2835.31992	0.36497
2831.46234	0.36494
2827.60477	0.36514
2823.74719	0.36489
2819.88961	0.36459
2816.03203	0.36473
2812.17445	0.36492
2808.31687	0.36463
2804.45930	0.36417
2800.60172	0.36420
2796.74414	0.36451
2792.88656	0.36439
2789.02898	0.36416
2785.17141	0.36444
2781.31383	0.36468
2777.45625	0.36452
2773.59867	0.36438
2769.74109	0.36445
2765.88352	0.36439
2762.02594	0.36395
2758.16836	0.36369
2754.31078	0.36378
2750.45320	0.36392
2746.59562	0.36389
2742.73805	0.36372
2738.88047	0.36338
2735.02289	0.36292
2731.16531	0.36275
2727.30773	0.36288
2723.45016	0.36308
2719.59258	0.36316
2715.73500	0.36305
2711.87742	0.36326
2708.01984	0.36347
2704.16227	0.36317
2700.30469	0.36270
2696.44711	0.36235
2692.58953	0.36223
2688.73195	0.36224
2684.87437	0.36219
2681.01680	0.36213
2677.15922	0.36190
2673.30164	0.36164
2669.44406	0.36179
2665.58648	0.36187
2661.72891	0.36152
2657.87133	0.36149
2654.01375	0.36177
2650.15617	0.36168
2646.29859	0.36127
2642.44102	0.36094
2638.58344	0.36078
2634.72586	0.36070
2630.86828	0.36069
2627.01070	0.36065
2623.15312	0.36057
2619.29555	0.36050
2615.43797	0.36042
2611.58039	0.36048
2607.72281	0.36052
2603.86523	0.36026
2600.00766	0.36012
2596.15008	0.36010
2592.29250	0.36000
2588.43492	0.35996
2584.57734	0.35970
2580.71977	0.35917
2576.86219	0.35886
2573.00461	0.35888
2569.14703	0.35882
2565.28945	0.35864
2561.43187	0.35867
2557.57430	0.35873
2553.71672	0.35843
2549.85914	0.35795
2546.00156	0.35800
2542.14398	0.35836
2538.28641	0.35811
2534.42883	0.35756
2530.57125	0.35718
2526.71367	0.35716
2522.85609	0.35751
2518.99852	0.35753
2515.14094	0.35714
2511.28336	0.35677
2507.42578	0.35658
2503.56820	0.35664
2499.71062	0.35666
2495.85305	0.35653
2491.99547	0.35632
2488.13789	0.35625
2484.28031	0.35619
2480.42273	0.35591
2476.56516	0.35578
2472.70758	0.35566
2468.85000	0.35543
2464.99242	0.35538
2461.13484	0.35527
2457.27727	0.35510
2453.41969	0.35496
2449.56211	0.35496
2445.70453	0.35495
2441.84695	0.35460
2437.98937	0.35430
2434.13180	0.35404
2430.27422	0.35385
2426.41664	0.35400
2422.55906	0.35405
2418.70148	0.35387
2414.84391	0.35367
2410.98633	0.35333
2407.12875	0.35306
2403.27117	0.35311
2399.41359	0.35308
2395.55602	0.35289
2391.69844	0.35251
2387.84086	0.35084
2383.98328	0.34705
2380.12570	0.34146
2376.26812	0.33427
2372.41055	0.32640
2368.55297	0.32299
2364.69539	0.32471
2360.83781	0.32267
2356.98023	0.31797
2353.12266	0.31810
2349.26508	0.31954
2345.40750	0.31777
2341.54992	0.31300
2337.69234	0.31364
2333.83477	0.31422
2329.97719	0.31367
2326.11961	0.31792
2322.26203	0.32357
2318.40445	0.32656
2314.54687	0.32820
2310.68930	0.33057
2306.83172	0.33420
2302.97414	0.33731
2299.11656	0.33909
2295.25898	0.34067
2291.40141	0.34248
2287.54383	0.34423
2283.68625	0.34541
2279.82867	0.34540
2275.97109	0.34495
2272.11352	0.34500
2268.25594	0.34502
2264.39836	0.34483
2260.54078	0.34482
2256.68320	0.34507
2252.82562	0.34533
2248.96805	0.34534
2245.11047	0.34524
2241.25289	0.34504
2237.39531	0.34490
2233.53773	0.34492
2229.68016	0.34482
2225.82258	0.34464
2221.96500	0.34438
2218.10742	0.34411
2214.24984	0.34392
2210.39227	0.34372
2206.53469	0.34361
2202.67711	0.34339
2198.81953	0.34312
2194.96195	0.34302
2191.10437	0.34287
2187.24680	0.34262
2183.38922	0.34236
2179.53164	0.34217
2175.67406	0.34193
2171.81648	0.34156
2167.95891	0.34133
2164.10133	0.34112
2160.24375	0.34076
2156.38617	0.34047
2152.52859	0.34023
2148.67102	0.34008
2144.81344	0.34005
2140.95586	0.33983
2137.09828	0.33963
2133.24070	0.33938
2129.38312	0.33882
2125.52555	0.33834
2121.66797	0.33819
2117.81039	0.33819
2113.95281	0.33814
2110.09523	0.33782
2106.23766	0.33746
2102.38008	0.33728
2098.52250	0.33705
2094.66492	0.33669
2090.80734	0.33640
2086.94977	0.33624
2083.09219	0.33597
2079.23461	0.33561
2075.37703	0.33540
2071.51945	0.33526
2067.66187	0.33509
2063.80430	0.33476
2059.94672	0.33422
2056.08914	0.33392
2052.23156	0.33379
2048.37398	0.33358
2044.51641	0.33334
2040.65883	0.33302
2036.80125	0.33281
2032.94367	0.33264
2029.08609	0.33220
2025.22852	0.33179
2021.37094	0.33149
2017.51336	0.33117
2013.65578	0.33104
2009.79820	0.33090
2005.94062	0.33049
2002.08305	0.32999
1998.22547	0.32952
1994.36789	0.32912
1990.51031	0.32906
1986.65273	0.32900
1982.79516	0.32854
1978.93758	0.32818
1975.08000	0.32803
1971.22242	0.32768
1967.36484	0.32720
1963.50727	0.32672
1959.64969	0.32651
1955.79211	0.32663
1951.93453	0.32658
1948.07695	0.32620
1944.21937	0.32548
1940.36180	0.32480
1936.50422	0.32461
1932.64664	0.32461
1928.78906	0.32443
1924.93148	0.32407
1921.07391	0.32380
1917.21633	0.32354
1913.35875	0.32334
1909.50117	0.32313
1905.64359	0.32249
1901.78602	0.32199
1897.92844	0.32158
1894.07086	0.32118
1890.21328	0.32147
1886.35570	0.32140
1882.49812	0.32066
1878.64055	0.32041
1874.78297	0.32039
1870.92539	0.32001
1867.06781	0.31938
1863.21023	0.31896
1859.35266	0.31863
1855.49508	0.31817
1851.63750	0.31765
1847.77992	0.31723
1843.92234	0.31714
1840.06477	0.31719
1836.20719	0.31688
1832.34961	0.31630
1828.49203	0.31603
1824.63445	0.31573
1820.77687	0.31513
1816.91930	0.31482
1813.06172	0.31484
1809.20414	0.31486
1805.34656	0.31436
1801.48898	0.31333
1797.63141	0.31271
1793.77383	0.31285
1789.91625	0.31300
1786.05867	0.31259
1782.20109	0.31192
1778.34352	0.31142
1774.48594	0.31107
1770.62836	0.31037
1766.77078	0.30947
1762.91320	0.30936
1759.05562	0.31017
1755.19805	0.31000
1751.34047	0.30899
1747.48289	0.30919
1743.62531	0.30950
1739.76773	0.30871
1735.91016	0.30776
1732.05258	0.30724
1728.19500	0.30697
1724.33742	0.30668
1720.47984	0.30649
1716.62227	0.30672
1712.76469	0.30642
1708.90711	0.30549
1705.04953	0.30485
1701.19195	0.30513
1697.33437	0.30491
1693.47680	0.30440
1689.61922	0.30435
1685.76164	0.30387
1681.90406	0.30368
1678.04648	0.30416
1674.18891	0.30338
1670.33133	0.30172
1666.47375	0.30151
1662.61617	0.30204
1658.75859	0.30243
1654.90102	0.30209
1651.04344	0.30039
1647.18586	0.30000
1643.32828	0.30091
1639.47070	0.30089
1635.61312	0.29986
1631.75555	0.29970
1627.89797	0.29968
1624.04039	0.29951
1620.18281	0.29965
1616.32523	0.29918
1612.46766	0.29888
1608.61008	0.29878
1604.75250	0.29828
1600.89492	0.29782
1597.03734	0.29731
1593.17977	0.29718
1589.32219	0.29734
1585.46461	0.29715
1581.60703	0.29683
1577.74945	0.29632
1573.89187	0.29554
1570.03430	0.29495
1566.17672	0.29455
1562.31914	0.29410
1558.46156	0.29409
1554.60398	0.29448
1550.74641	0.29418
1546.88883	0.29395
1543.03125	0.29346
1539.17367	0.29214
1535.31609	0.29213
1531.45852	0.29259
1527.60094	0.29241
1523.74336	0.29168
1519.88578	0.29156
1516.02820	0.29142
1512.17062	0.29061
1508.31305	0.28970
1504.45547	0.28961
1500.59789	0.28967
1496.74031	0.28997
1492.88273	0.29045
1489.02516	0.29043
1485.16758	0.28993
1481.31000	0.28950
1477.45242	0.28920
1473.59484	0.28905
1469.73727	0.28885
1465.87969	0.28857
1462.02211	0.28846
1458.16453	0.28827
1454.30695	0.28780
1450.44937	0.28755
1446.59180	0.28744
1442.73422	0.28747
1438.87664	0.28749
1435.01906	0.28734
1431.16148	0.28712
1427.30391	0.28684
1423.44633	0.28664
1419.58875	0.28638
1415.73117	0.28604
1411.87359	0.28600
1408.01602	0.28589
1404.15844	0.28546
1400.30086	0.28506
1396.44328	0.28496
1392.58570	0.28484
1388.72812	0.28452
1384.87055	0.28438
1381.01297	0.28437
1377.15539	0.28425
1373.29781	0.28425
1369.44023	0.28427
1365.58266	0.28392
1361.72508	0.28346
1357.86750	0.28347
1354.00992	0.28353
1350.15234	0.28330
1346.29477	0.28300
1342.43719	0.28276
1338.57961	0.28260
1334.72203	0.28255
1330.86445	0.28244
1327.00687	0.28211
1323.14930	0.28182
1319.29172	0.28179
1315.43414	0.28179
1311.57656	0.28162
1307.71898	0.28139
1303.86141	0.28127
1300.00383	0.28126
1296.14625	0.28116
1292.28867	0.28088
1288.43109	0.28071
1284.57352	0.28079
1280.71594	0.28082
1276.85836	0.28073
1273.00078	0.28057
1269.14320	0.28025
1265.28562	0.28009
1261.42805	0.28009
1257.57047	0.27983
1253.71289	0.27962
1249.85531	0.27969
1245.99773	0.27966
1242.14016	0.27940
1238.28258	0.27924
1234.42500	0.27932
1230.56742	0.27918
1226.70984	0.27878
1222.85227	0.27856
1218.99469	0.27844
1215.13711	0.27837
1211.27953	0.27837
1207.42195	0.27839
1203.56437	0.27838
1199.70680	0.27813
1195.84922	0.27772
1191.99164	0.27764
1188.13406	0.27785
1184.27648	0.27780
1180.41891	0.27745
1176.56133	0.27720
1172.70375	0.27720
1168.84617	0.27730
1164.98859	0.27714
1161.13102	0.27686
1157.27344	0.27668
1153.41586	0.27635
1149.55828	0.27629
1145.70070	0.27654
1141.84312	0.27635
1137.98555	0.27588
1134.12797	0.27578
1130.27039	0.27575
1126.41281	0.27551
1122.55523	0.27553
1118.69766	0.27570
1114.84008	0.27561
1110.98250	0.27539
1107.12492	0.27505
1103.26734	0.27486
1099.40977	0.27505
1095.55219	0.27495
1091.69461	0.27461
1087.83703	0.27450
1083.97945	0.27428
1080.12187	0.27402
1076.26430	0.27406
1072.40672	0.27404
1068.54914	0.27387
1064.69156	0.27379
1060.83398	0.27356
1056.97641	0.27320
1053.11883	0.27299
1049.26125	0.27274
1045.40367	0.27243
1041.54609	0.27210
1037.68852	0.27182
1033.83094	0.27183
1029.97336	0.27180
1026.11578	0.27162
1022.25820	0.27157
1018.40062	0.27130
1014.54305	0.27078
1010.68547	0.27033
1006.82789	0.27012
1002.97031	0.27007
999.11273	0.26981
995.25516	0.26940
991.39758	0.26907
987.54000	0.26879
983.68242	0.26871
979.82484	0.26889
975.96727	0.26875
972.10969	0.26829
968.25211	0.26804
964.39453	0.26776
960.53695	0.26732
956.67937	0.26698
952.82180	0.26670
948.96422	0.26639
945.10664	0.26590
941.24906	0.26551
937.39148	0.26555
933.53391	0.26532
929.67633	0.26464
925.81875	0.26440
921.96117	0.26452
918.10359	0.26433
914.24602	0.26426
910.38844	0.26454
906.53086	0.26435
902.67328	0.26368
898.81570	0.26310
894.95812	0.26271
891.10055	0.26238
887.24297	0.26213
883.38539	0.26217
879.52781	0.26193
875.67023	0.26130
871.81266	0.26098
867.95508	0.26073
864.09750	0.26059
860.23992	0.26082
856.38234	0.26053
852.52477	0.25962
848.66719	0.25900
844.80961	0.25867
840.95203	0.25829
837.09445	0.25811
833.23687	0.25767
829.37930	0.25696
825.52172	0.25650
821.66414	0.25610
817.80656	0.25563
813.94898	0.25481
810.09141	0.25419
806.23383	0.25405
802.37625	0.25331
798.51867	0.25240
794.66109	0.25192
790.80352	0.25138
786.94594	0.25072
783.08836	0.24997
779.23078	0.24926
775.37320	0.24857
771.51562	0.24767
767.65805	0.24689
763.80047	0.24652
759.94289	0.24628
756.08531	0.24571
752.22773	0.24469
748.37016	0.24385
744.51258	0.24335
740.65500	0.24282
736.79742	0.24195
732.93984	0.24077
729.08227	0.24004
725.22469	0.23924
721.36711	0.23777
717.50953	0.23716
713.65195	0.23711
709.79437	0.23591
705.93680	0.23399
702.07922	0.23211
698.22164	0.23050
694.36406	0.22960
690.50648	0.22863
686.64891	0.22672
682.79133	0.22494
678.93375	0.22368
675.07617	0.22172
671.21859	0.21969
667.36102	0.22035
663.50344	0.22057
659.64586	0.21893
655.78828	0.21787
651.93070	0.21696
648.07312	0.21550
644.21555	0.21480
640.35797	0.21463
636.50039	0.21462
632.64281	0.21391
628.78523	0.21211
624.92766	0.21040
621.07008	0.20913
617.21250	0.20796
613.35492	0.20705
609.49734	0.20600
605.63977	0.20426
601.78219	0.20237
597.92461	0.20073
594.06703	0.19853
590.20945	0.19589
586.35187	0.19441
582.49430	0.19390
578.63672	0.19269
574.77914	0.19082
570.92156	0.18821
567.06398	0.18473
563.20641	0.18243
559.34883	0.18059
555.49125	0.17817
551.63367	0.17684
547.77609	0.17488
543.91852	0.17120
540.06094	0.16801
536.20336	0.16516
532.34578	0.16256
528.48820	0.16078
524.63062	0.15858
520.77305	0.15518
516.91547	0.15094
513.05789	0.14653
509.20031	0.14289
505.34273	0.13971
501.48516	0.13608
497.62758	0.13296
493.77000	0.13119
489.91242	0.12896
486.05484	0.12385
482.19727	0.11778
478.33969	0.11338
474.48211	0.10866
470.62453	0.10379
466.76695	0.09995
462.90937	0.09590
459.05180	0.09063
455.19422	0.08373
451.33664	0.07948
447.47906	0.07359
443.62148	0.06347
439.76391	0.05953
435.90633	0.05798
432.04875	0.05317
428.19117	0.04826
424.33359	0.04401
420.47602	0.04183
416.61844	0.03577
412.76086	0.02728
408.90328	0.02389
405.04570	0.02385
401.18812	0.01953
397.33055	0.03319
393.47297	0.07830
389.61539	0.09850
385.75781	0.11010
381.90023	0.13229
378.04266	0.16450
374.18508	0.23353
370.32750	0.28132
366.46992	0.28198
362.61234	0.28513
358.75477	0.28843
354.89719	0.33077
351.03961	0.37765
347.18203	0.40975
343.32445	0.47192
339.46687	0.47424
335.60930	0.35818
331.75172	0.16170
327.89414	0.19384
324.03656	0.51444
320.17898	0.33224
316.32141	-0.05282
312.46383	-0.03473
308.60625	0.24839
304.74867	0.15719
300.89109	0.20932
