14998.26375	0.07036
14994.40617	0.09931
14990.54859	0.29827
14986.69102	0.48267
14982.83344	0.31702
14978.97586	0.11383
14975.11828	0.02330
14971.26070	0.02690
14967.40312	0.05409
14963.54555	0.02398
14959.68797	0.16894
14955.83039	0.18036
14951.97281	0.07709
14948.11523	0.27276
14944.25766	0.26843
14940.40008	0.16756
14936.54250	0.31892
14932.68492	0.34788
14928.82734	0.18206
14924.96977	-0.04774
14921.11219	-0.13599
14917.25461	0.07589
14913.39703	0.22581
14909.53945	0.14932
14905.68187	0.16345
14901.82430	0.11705
14897.96672	-0.09409
14894.10914	-0.20412
14890.25156	-0.15270
14886.39398	-0.07072
14882.53641	0.00086
14878.67883	0.01677
14874.82125	0.05134
14870.96367	0.12430
14867.10609	0.11816
14863.24852	0.14515
14859.39094	0.24140
14855.53336	0.22393
14851.67578	0.08648
14847.81820	0.06888
14843.96062	0.18491
14840.10305	0.25096
14836.24547	0.22315
14832.38789	0.23480
14828.53031	0.31569
14824.67273	0.37716
14820.81516	0.34964
14816.95758	0.22133
14813.10000	0.01976
14809.24242	-0.04346
14805.38484	0.11626
14801.52727	0.15458
14797.66969	0.05153
14793.81211	-0.01787
14789.95453	0.01457
14786.09695	0.05114
14782.23937	0.00306
14778.38180	-0.05850
14774.52422	-0.06116
14770.66664	-0.12930
14766.80906	-0.14685
14762.95148	-0.09488
14759.09391	-0.05050
14755.23633	-0.00990
14751.37875	0.01621
14747.52117	-0.00944
14743.66359	-0.03366
14739.80602	-0.02432
14735.94844	0.01131
14732.09086	0.06202
14728.23328	0.07405
14724.37570	0.11801
14720.51812	0.08748
14716.66055	0.08721
14712.80297	0.09459
14708.94539	0.06178
14705.08781	0.13688
14701.23023	0.18813
14697.37266	0.07281
14693.51508	-0.02242
14689.65750	0.00474
14685.79992	0.10413
14681.94234	0.10936
14678.08477	0.10703
14674.22719	0.16346
14670.36961	0.13177
14666.51203	0.03471
14662.65445	0.00638
14658.79687	0.07766
14654.93930	0.11305
14651.08172	-0.00652
14647.22414	-0.02683
14643.36656	0.13982
14639.50898	0.16207
14635.65141	0.05480
14631.79383	0.04872
14627.93625	0.04785
14624.07867	0.03236
14620.22109	0.04293
14616.36352	0.02934
14612.50594	0.04219
14608.64836	0.10729
14604.79078	0.05435
14600.93320	-0.13858
14597.07562	-0.10403
14593.21805	-0.08564
14589.36047	0.07677
14585.50289	0.06560
14581.64531	-0.04507
14577.78773	0.07760
14573.93016	0.15939
14570.07258	0.09252
14566.21500	0.01603
14562.35742	-0.02616
14558.49984	-0.03172
14554.64227	-0.01349
14550.78469	0.06994
14546.92711	0.14585
14543.06953	0.11077
14539.21195	0.02096
14535.35437	-0.10300
14531.49680	-0.11426
14527.63922	0.04049
14523.78164	0.13627
14519.92406	0.10251
14516.06648	0.10556
14512.20891	0.14093
14508.35133	0.13462
14504.49375	0.13605
14500.63617	0.22816
14496.77859	0.17705
14492.92102	0.01218
14489.06344	-0.07206
14485.20586	-0.06967
14481.34828	0.01396
14477.49070	0.04175
14473.63312	0.00693
14469.77555	0.01100
14465.91797	0.06376
14462.06039	0.06404
14458.20281	0.06579
14454.34523	0.08104
14450.48766	0.03530
14446.63008	0.04498
14442.77250	0.10315
14438.91492	0.08006
14435.05734	0.05607
14431.19977	0.04213
14427.34219	0.05151
14423.48461	0.11934
14419.62703	0.08803
14415.76945	0.03020
14411.91187	0.09242
14408.05430	0.11588
14404.19672	0.08928
14400.33914	0.07264
14396.48156	-0.00563
14392.62398	-0.00759
14388.76641	0.06224
14384.90883	0.06102
14381.05125	0.06594
14377.19367	-0.00057
14373.33609	-0.11172
14369.47852	0.00110
14365.62094	0.02976
14361.76336	-0.01239
14357.90578	-0.00160
14354.04820	-0.01510
14350.19062	-0.11558
14346.33305	-0.09536
14342.47547	-0.01946
14338.61789	-0.08347
14334.76031	-0.10701
14330.90273	-0.02022
14327.04516	-0.03554
14323.18758	0.09897
14319.33000	0.02051
14315.47242	-0.04892
14311.61484	0.00489
14307.75727	0.04332
14303.89969	-0.00737
14300.04211	-0.00628
14296.18453	0.07977
14292.32695	0.11819
14288.46937	0.04159
14284.61180	0.01861
14280.75422	0.07217
14276.89664	0.05725
14273.03906	0.03469
14269.18148	0.09605
14265.32391	0.13169
14261.46633	0.12495
14257.60875	0.08547
14253.75117	0.04937
14249.89359	0.07490
14246.03602	0.07268
14242.17844	0.01261
14238.32086	-0.01469
14234.46328	0.05528
14230.60570	0.09081
14226.74812	0.04382
14222.89055	0.03921
14219.03297	0.04253
14215.17539	0.01111
14211.31781	-0.01864
14207.46023	0.00172
14203.60266	0.04309
14199.74508	0.07577
14195.88750	0.07547
14192.02992	0.04574
14188.17234	0.04407
14184.31477	0.08832
14180.45719	0.08274
14176.59961	0.02438
14172.74203	0.01648
14168.88445	0.04290
14165.02687	0.02592
14161.16930	0.03119
14157.31172	0.07384
14153.45414	0.06241
14149.59656	0.04188
14145.73898	0.03530
14141.88141	-0.08605
14138.02383	-0.16681
14134.16625	-0.02099
14130.30867	0.06284
14126.45109	0.10330
14122.59352	0.11401
14118.73594	0.09940
14114.87836	0.05950
14111.02078	-0.02390
14107.16320	-0.08445
14103.30562	-0.03659
14099.44805	0.06011
14095.59047	0.01657
14091.73289	-0.01620
14087.87531	0.04329
14084.01773	0.09199
14080.16016	0.06492
14076.30258	0.01977
14072.44500	0.03096
14068.58742	0.06209
14064.72984	0.05877
14060.87227	0.05372
14057.01469	0.06252
14053.15711	0.04865
14049.29953	0.04896
14045.44195	0.05093
14041.58437	0.04760
14037.72680	0.10213
14033.86922	0.13353
14030.01164	0.08964
14026.15406	0.08152
14022.29648	0.09812
14018.43891	0.07843
14014.58133	0.05144
14010.72375	0.04296
14006.86617	0.04672
14003.00859	0.06845
13999.15102	0.07238
13995.29344	0.05674
13991.43586	0.08283
13987.57828	0.10148
13983.72070	0.04128
13979.86312	0.00532
13976.00555	0.06083
13972.14797	0.09998
13968.29039	0.10703
13964.43281	0.10162
13960.57523	0.05967
13956.71766	0.04965
13952.86008	0.12413
13949.00250	0.15170
13945.14492	0.04606
13941.28734	-0.05823
13937.42977	-0.06135
13933.57219	-0.02300
13929.71461	0.01443
13925.85703	0.06752
13921.99945	0.08634
13918.14187	0.04819
13914.28430	0.05318
13910.42672	0.06948
13906.56914	0.03244
13902.71156	0.01780
13898.85398	0.02779
13894.99641	0.07923
13891.13883	0.09173
13887.28125	0.01454
13883.42367	0.03400
13879.56609	0.11729
13875.70852	0.10438
13871.85094	0.03921
13867.99336	-0.00079
13864.13578	0.04210
13860.27820	0.08539
13856.42062	0.04504
13852.56305	0.03329
13848.70547	0.05978
13844.84789	0.04744
13840.99031	0.03175
13837.13273	0.02425
13833.27516	0.02589
13829.41758	0.05734
13825.56000	0.03611
13821.70242	-0.02452
13817.84484	-0.00342
13813.98727	0.06317
13810.12969	0.04608
13806.27211	0.03072
13802.41453	0.07904
13798.55695	0.10490
13794.69937	0.07755
13790.84180	0.03996
13786.98422	0.02063
13783.12664	0.03273
13779.26906	0.08840
13775.41148	0.11734
13771.55391	0.07951
13767.69633	0.01887
13763.83875	0.00551
13759.98117	0.03466
13756.12359	0.02899
13752.26602	0.01457
13748.40844	0.03202
13744.55086	0.02986
13740.69328	-0.00258
13736.83570	-0.00691
13732.97812	0.05377
13729.12055	0.06291
13725.26297	0.05244
13721.40539	0.08153
13717.54781	0.05629
13713.69023	-0.00499
13709.83266	-0.02999
13705.97508	0.04110
13702.11750	0.13788
13698.25992	0.10873
13694.40234	0.03817
13690.54477	0.05046
13686.68719	0.06914
13682.82961	0.05984
13678.97203	0.06551
13675.11445	0.06370
13671.25687	0.05962
13667.39930	0.03791
13663.54172	0.00170
13659.68414	0.01504
13655.82656	0.01294
13651.96898	-0.00103
13648.11141	0.02964
13644.25383	0.03915
13640.39625	0.03652
13636.53867	0.04879
13632.68109	0.02096
13628.82352	0.01399
13624.96594	0.03443
13621.10836	0.02143
13617.25078	-0.01020
13613.39320	-0.01395
13609.53562	0.00616
13605.67805	-0.01497
13601.82047	-0.04165
13597.96289	-0.03179
13594.10531	-0.01269
13590.24773	0.03563
13586.39016	0.00515
13582.53258	-0.00183
13578.67500	-0.01221
13574.81742	-0.00893
13570.95984	0.01659
13567.10227	0.02731
13563.24469	0.04094
13559.38711	0.05460
13555.52953	0.05170
13551.67195	0.03963
13547.81437	0.02358
13543.95680	0.02678
13540.09922	0.03092
13536.24164	0.02777
13532.38406	0.06822
13528.52648	0.09648
13524.66891	0.04389
13520.81133	0.01905
13516.95375	0.04080
13513.09617	0.02533
13509.23859	0.00163
13505.38102	0.02360
13501.52344	0.05053
13497.66586	0.04718
13493.80828	0.05645
13489.95070	0.07870
13486.09312	0.04684
13482.23555	0.00609
13478.37797	0.01971
13474.52039	0.01438
13470.66281	-0.00802
13466.80523	0.02889
13462.94766	0.06344
13459.09008	0.04879
13455.23250	0.05988
13451.37492	0.05215
13447.51734	-0.00330
13443.65977	0.00974
13439.80219	0.03710
13435.94461	0.01322
13432.08703	0.04650
13428.22945	0.05998
13424.37187	0.00631
13420.51430	0.00636
13416.65672	0.02537
13412.79914	0.03194
13408.94156	0.03303
13405.08398	0.02775
13401.22641	0.04527
13397.36883	0.04283
13393.51125	0.02523
13389.65367	0.02605
13385.79609	0.00057
13381.93852	-0.01008
13378.08094	-0.00579
13374.22336	0.01042
13370.36578	0.02390
13366.50820	0.00593
13362.65062	0.01963
13358.79305	0.03943
13354.93547	0.05114
13351.07789	0.07742
13347.22031	0.07588
13343.36273	0.00554
13339.50516	-0.06964
13335.64758	-0.05505
13331.79000	0.00131
13327.93242	0.02360
13324.07484	-0.00378
13320.21727	-0.01314
13316.35969	0.01974
13312.50211	0.02815
13308.64453	0.03096
13304.78695	0.03872
13300.92937	0.02419
13297.07180	-0.00687
13293.21422	-0.00477
13289.35664	0.03689
13285.49906	0.06670
13281.64148	0.05590
13277.78391	0.03311
13273.92633	0.04943
13270.06875	0.08355
13266.21117	0.06508
13262.35359	0.06323
13258.49602	0.04968
13254.63844	-0.02437
13250.78086	-0.03347
13246.92328	0.00488
13243.06570	0.00448
13239.20812	0.02679
13235.35055	0.07395
13231.49297	0.07044
13227.63539	0.01003
13223.77781	-0.01641
13219.92023	0.01529
13216.06266	0.03614
13212.20508	0.02642
13208.34750	0.05277
13204.48992	0.05388
13200.63234	-0.01377
13196.77477	-0.01443
13192.91719	0.01163
13189.05961	0.00205
13185.20203	0.01664
13181.34445	0.01953
13177.48687	0.01566
13173.62930	0.01182
13169.77172	0.00733
13165.91414	0.03309
13162.05656	0.04667
13158.19898	0.04418
13154.34141	0.05203
13150.48383	0.03529
13146.62625	0.00733
13142.76867	0.01141
13138.91109	0.02313
13135.05352	0.01776
13131.19594	0.02234
13127.33836	0.02120
13123.48078	-0.00521
13119.62320	0.00217
13115.76562	0.03947
13111.90805	0.04827
13108.05047	0.04158
13104.19289	0.03327
13100.33531	0.01166
13096.47773	0.00239
13092.62016	0.00957
13088.76258	0.02532
13084.90500	0.02410
13081.04742	-0.01161
13077.18984	0.00337
13073.33227	0.01742
13069.47469	0.01675
13065.61711	-0.02530
13061.75953	-0.04680
13057.90195	0.00656
13054.04437	0.05281
13050.18680	0.08101
13046.32922	0.07412
13042.47164	0.03108
13038.61406	0.03286
13034.75648	0.05412
13030.89891	0.04097
13027.04133	0.02876
13023.18375	0.05445
13019.32617	0.05288
13015.46859	-0.00290
13011.61102	-0.01822
13007.75344	-0.00210
13003.89586	0.00060
13000.03828	0.03664
12996.18070	0.06427
12992.32312	0.03001
12988.46555	-0.00017
12984.60797	0.03081
12980.75039	0.07940
12976.89281	0.07215
12973.03523	0.05426
12969.17766	0.05404
12965.32008	0.01987
12961.46250	-0.00054
12957.60492	0.01585
12953.74734	0.01056
12949.88977	0.00889
12946.03219	0.02707
12942.17461	0.02655
12938.31703	0.02560
12934.45945	0.02647
12930.60187	0.02183
12926.74430	-0.00348
12922.88672	-0.01454
12919.02914	-0.00156
12915.17156	0.01719
12911.31398	0.00835
12907.45641	0.00283
12903.59883	0.00226
12899.74125	0.00490
12895.88367	0.03114
12892.02609	0.03825
12888.16852	0.02193
12884.31094	0.00638
12880.45336	-0.00319
12876.59578	0.01019
12872.73820	0.01318
12868.88062	-0.01744
12865.02305	-0.03344
12861.16547	-0.01207
12857.30789	0.01886
12853.45031	0.04089
12849.59273	0.03734
12845.73516	0.01686
12841.87758	0.02321
12838.02000	0.04393
12834.16242	0.03608
12830.30484	0.01147
12826.44727	-0.00648
12822.58969	0.00473
12818.73211	0.03592
12814.87453	0.03972
12811.01695	0.02345
12807.15937	0.02219
12803.30180	0.02097
12799.44422	0.02285
12795.58664	0.03531
12791.72906	0.04321
12787.87148	0.03909
12784.01391	0.01957
12780.15633	0.01278
12776.29875	0.03708
12772.44117	0.04084
12768.58359	-0.00199
12764.72602	-0.03767
12760.86844	-0.02851
12757.01086	0.04470
12753.15328	0.02597
12749.29570	-0.01573
12745.43812	0.03396
12741.58055	-0.01142
12737.72297	-0.03209
12733.86539	0.01779
12730.00781	0.01886
12726.15023	0.01793
12722.29266	0.02809
12718.43508	0.00953
12714.57750	-0.01505
12710.71992	-0.01249
12706.86234	-0.00777
12703.00477	-0.00961
12699.14719	0.01925
12695.28961	0.02253
12691.43203	-0.00389
12687.57445	-0.00419
12683.71687	0.01844
12679.85930	0.03520
12676.00172	0.01972
12672.14414	-0.00536
12668.28656	-0.00068
12664.42898	0.01545
12660.57141	0.03339
12656.71383	0.04663
12652.85625	0.03576
12648.99867	0.02774
12645.14109	0.02661
12641.28352	0.01005
12637.42594	0.01224
12633.56836	0.03004
12629.71078	0.02029
12625.85320	0.00293
12621.99562	0.00018
12618.13805	0.00701
12614.28047	0.02679
12610.42289	0.03318
12606.56531	0.02995
12602.70773	0.05430
12598.85016	0.06857
12594.99258	0.04087
12591.13500	0.00045
12587.27742	-0.01920
12583.41984	0.00330
12579.56227	0.02845
12575.70469	0.01695
12571.84711	-0.00040
12567.98953	-0.00456
12564.13195	0.00400
12560.27437	0.01475
12556.41680	0.01069
12552.55922	0.00662
12548.70164	0.01614
12544.84406	0.01291
12540.98648	0.00809
12537.12891	0.02462
12533.27133	0.03379
12529.41375	0.03514
12525.55617	0.04596
12521.69859	0.04855
12517.84102	0.02646
12513.98344	0.01518
12510.12586	0.00914
12506.26828	-0.00322
12502.41070	0.02032
12498.55312	0.04601
12494.69555	0.04237
12490.83797	0.04722
12486.98039	0.04235
12483.12281	0.02712
12479.26523	0.01809
12475.40766	-0.00476
12471.55008	0.00121
12467.69250	0.03153
12463.83492	0.02702
12459.97734	0.02475
12456.11977	0.02202
12452.26219	0.00088
12448.40461	-0.00714
12444.54703	-0.00807
12440.68945	-0.01267
12436.83187	-0.00092
12432.97430	0.01796
12429.11672	0.01429
12425.25914	-0.00214
12421.40156	-0.00491
12417.54398	-0.00282
12413.68641	0.01329
12409.82883	0.03371
12405.97125	0.02891
12402.11367	0.00908
12398.25609	0.00209
12394.39852	0.01153
12390.54094	0.02922
12386.68336	0.03609
12382.82578	0.03666
12378.96820	0.02877
12375.11062	0.00431
12371.25305	-0.00318
12367.39547	0.03282
12363.53789	0.04771
12359.68031	0.01700
12355.82273	0.01237
12351.96516	0.02586
12348.10758	0.03169
12344.25000	0.03541
12340.39242	0.02222
12336.53484	0.00508
12332.67727	-0.00048
12328.81969	-0.00566
12324.96211	0.00184
12321.10453	0.02569
12317.24695	0.04212
12313.38937	0.04228
12309.53180	0.03906
12305.67422	0.04742
12301.81664	0.03787
12297.95906	0.00998
12294.10148	0.00332
12290.24391	0.00600
12286.38633	0.02049
12282.52875	0.03964
12278.67117	0.02979
12274.81359	0.01997
12270.95602	0.02362
12267.09844	0.01902
12263.24086	0.01574
12259.38328	0.00970
12255.52570	-0.00028
12251.66812	0.00874
12247.81055	0.03234
12243.95297	0.00298
12240.09539	-0.02778
12236.23781	-0.00693
12232.38023	0.00108
12228.52266	0.00155
12224.66508	0.01705
12220.80750	0.00689
12216.94992	0.01531
12213.09234	0.03717
12209.23477	0.03805
12205.37719	0.02123
12201.51961	0.00486
12197.66203	-0.00855
12193.80445	-0.00768
12189.94687	0.00399
12186.08930	0.02175
12182.23172	0.03536
12178.37414	0.01777
12174.51656	0.00799
12170.65898	0.01476
12166.80141	0.00876
12162.94383	0.00707
12159.08625	0.00371
12155.22867	-0.00192
12151.37109	0.01699
12147.51352	0.03331
12143.65594	0.01756
12139.79836	-0.00562
12135.94078	-0.00238
12132.08320	0.00686
12128.22562	-0.00118
12124.36805	-0.01454
12120.51047	-0.01462
12116.65289	-0.00099
12112.79531	0.00842
12108.93773	0.00636
12105.08016	0.00287
12101.22258	0.01230
12097.36500	0.03868
12093.50742	0.05655
12089.64984	0.04278
12085.79227	0.03038
12081.93469	0.01919
12078.07711	-0.00848
12074.21953	-0.01928
12070.36195	0.00759
12066.50437	0.02927
12062.64680	0.02470
12058.78922	0.02188
12054.93164	0.01596
12051.07406	0.00088
12047.21648	-0.00438
12043.35891	-0.00380
12039.50133	-0.00211
12035.64375	-0.00419
12031.78617	-0.00965
12027.92859	-0.00313
12024.07102	0.00551
12020.21344	0.00712
12016.35586	-0.01230
12012.49828	-0.00747
12008.64070	0.01834
12004.78312	0.01384
12000.92555	0.01490
11997.06797	0.00437
11993.21039	-0.00868
11989.35281	-0.00066
11985.49523	0.00818
11981.63766	0.01743
11977.78008	0.03579
11973.92250	0.02656
11970.06492	-0.00025
11966.20734	-0.00246
11962.34977	0.00538
11958.49219	-0.00410
11954.63461	0.00380
11950.77703	0.03665
11946.91945	0.03271
11943.06187	0.01711
11939.20430	0.01668
11935.34672	0.00589
11931.48914	-0.00875
11927.63156	-0.01283
11923.77398	-0.00187
11919.91641	0.01476
11916.05883	0.01533
11912.20125	0.00326
11908.34367	-0.00034
11904.48609	0.01147
11900.62852	0.02291
11896.77094	0.02356
11892.91336	0.01111
11889.05578	-0.00005
11885.19820	-0.00623
11881.34062	-0.01070
11877.48305	-0.00153
11873.62547	0.00467
11869.76789	-0.00275
11865.91031	0.01145
11862.05273	0.01954
11858.19516	0.00398
11854.33758	-0.00485
11850.48000	0.00425
11846.62242	0.00318
11842.76484	-0.00264
11838.90727	-0.00481
11835.04969	-0.01204
11831.19211	-0.00617
11827.33453	0.00979
11823.47695	0.01589
11819.61937	0.00171
11815.76180	-0.01424
11811.90422	-0.01121
11808.04664	0.00663
11804.18906	0.01972
11800.33148	0.01223
11796.47391	0.00215
11792.61633	0.01359
11788.75875	0.01446
11784.90117	0.00445
11781.04359	0.00677
11777.18602	0.00033
11773.32844	-0.00997
11769.47086	0.00440
11765.61328	0.01941
11761.75570	0.00836
11757.89812	-0.00016
11754.04055	0.01135
11750.18297	0.01535
11746.32539	0.01187
11742.46781	0.01042
11738.61023	-0.00404
11734.75266	-0.01444
11730.89508	-0.00145
11727.03750	0.02380
11723.17992	0.02228
11719.32234	0.01044
11715.46477	0.00227
11711.60719	0.00647
11707.74961	0.01866
11703.89203	0.01592
11700.03445	0.01795
11696.17687	0.02539
11692.31930	0.02581
11688.46172	0.02279
11684.60414	0.01075
11680.74656	0.00875
11676.88898	0.01063
11673.03141	0.01511
11669.17383	0.02562
11665.31625	0.00790
11661.45867	-0.01204
11657.60109	0.00128
11653.74352	0.02646
11649.88594	0.02723
11646.02836	0.01736
11642.17078	0.00465
11638.31320	-0.00293
11634.45562	0.00511
11630.59805	0.00766
11626.74047	0.00512
11622.88289	0.01341
11619.02531	0.01843
11615.16773	0.00988
11611.31016	0.00195
11607.45258	0.00369
11603.59500	0.02023
11599.73742	0.02387
11595.87984	-0.00146
11592.02227	-0.00102
11588.16469	0.01578
11584.30711	0.01047
11580.44953	-0.00683
11576.59195	-0.01707
11572.73437	-0.01164
11568.87680	-0.00219
11565.01922	0.00591
11561.16164	0.01189
11557.30406	0.01349
11553.44648	0.00467
11549.58891	0.00211
11545.73133	0.00894
11541.87375	0.00356
11538.01617	-0.00220
11534.15859	0.00401
11530.30102	0.01214
11526.44344	0.01979
11522.58586	0.02407
11518.72828	0.02679
11514.87070	0.01851
11511.01312	-0.00453
11507.15555	-0.00851
11503.29797	0.00751
11499.44039	0.01427
11495.58281	0.01255
11491.72523	0.01404
11487.86766	0.01691
11484.01008	0.01635
11480.15250	0.01601
11476.29492	0.01001
11472.43734	0.00046
11468.57977	0.00380
11464.72219	0.00800
11460.86461	0.00421
11457.00703	0.00375
11453.14945	0.00919
11449.29187	0.01335
11445.43430	0.00613
11441.57672	-0.00362
11437.71914	-0.00051
11433.86156	0.00548
11430.00398	0.00582
11426.14641	0.00642
11422.28883	0.00017
11418.43125	-0.00378
11414.57367	0.00628
11410.71609	0.00852
11406.85852	0.00897
11403.00094	0.01377
11399.14336	0.00652
11395.28578	-0.00378
11391.42820	-0.00812
11387.57062	0.00014
11383.71305	0.00811
11379.85547	0.00876
11375.99789	0.01330
11372.14031	0.01290
11368.28273	0.00807
11364.42516	0.01053
11360.56758	0.01321
11356.71000	0.00942
11352.85242	-0.00013
11348.99484	-0.00343
11345.13727	-0.00204
11341.27969	0.00227
11337.42211	0.01037
11333.56453	0.00381
11329.70695	-0.00194
11325.84937	0.01302
11321.99180	0.02905
11318.13422	0.02830
11314.27664	0.01156
11310.41906	0.00237
11306.56148	0.00888
11302.70391	0.00967
11298.84633	0.00365
11294.98875	-0.00036
11291.13117	0.00564
11287.27359	0.01949
11283.41602	0.01219
11279.55844	-0.00657
11275.70086	-0.00269
11271.84328	0.01130
11267.98570	0.01011
11264.12812	0.00163
11260.27055	0.00966
11256.41297	0.02357
11252.55539	0.02053
11248.69781	0.00588
11244.84023	-0.00518
11240.98266	0.00866
11237.12508	0.03590
11233.26750	0.04722
11229.40992	0.04648
11225.55234	0.04644
11221.69477	0.04876
11217.83719	0.05374
11213.97961	0.05791
11210.12203	0.06170
11206.26445	0.06789
11202.40687	0.08465
11198.54930	0.11040
11194.69172	0.11904
11190.83414	0.10968
11186.97656	0.11465
11183.11898	0.13685
11179.26141	0.15715
11175.40383	0.16719
11171.54625	0.16643
11167.68867	0.16921
11163.83109	0.18190
11159.97352	0.19161
11156.11594	0.20124
11152.25836	0.21432
11148.40078	0.22629
11144.54320	0.23661
11140.68562	0.23771
11136.82805	0.23124
11132.97047	0.23459
11129.11289	0.24540
11125.25531	0.25047
11121.39773	0.26057
11117.54016	0.27976
11113.68258	0.29181
11109.82500	0.28883
11105.96742	0.28140
11102.10984	0.28334
11098.25227	0.28471
11094.39469	0.28672
11090.53711	0.30135
11086.67953	0.31655
11082.82195	0.32813
11078.96437	0.32718
11075.10680	0.31364
11071.24922	0.31240
11067.39164	0.31969
11063.53406	0.32177
11059.67648	0.32008
11055.81891	0.31827
11051.96133	0.31357
11048.10375	0.31385
11044.24617	0.32404
11040.38859	0.31863
11036.53102	0.30892
11032.67344	0.32532
11028.81586	0.34277
11024.95828	0.34270
11021.10070	0.34006
11017.24312	0.33535
11013.38555	0.33152
11009.52797	0.33544
11005.67039	0.33911
11001.81281	0.34213
10997.95523	0.34420
10994.09766	0.33780
10990.24008	0.33390
10986.38250	0.33714
10982.52492	0.33648
10978.66734	0.33799
10974.80977	0.34634
10970.95219	0.34929
10967.09461	0.34938
10963.23703	0.35375
10959.37945	0.34878
10955.52187	0.33796
10951.66430	0.34479
10947.80672	0.36018
10943.94914	0.36068
10940.09156	0.35661
10936.23398	0.36171
10932.37641	0.36375
10928.51883	0.35625
10924.66125	0.35006
10920.80367	0.34794
10916.94609	0.34752
10913.08852	0.35156
10909.23094	0.35573
10905.37336	0.35841
10901.51578	0.36233
10897.65820	0.36033
10893.80062	0.35463
10889.94305	0.35116
10886.08547	0.35042
10882.22789	0.35926
10878.37031	0.36730
10874.51273	0.36456
10870.65516	0.36455
10866.79758	0.36605
10862.94000	0.36624
10859.08242	0.36992
10855.22484	0.36237
10851.36727	0.34907
10847.50969	0.35014
10843.65211	0.35571
10839.79453	0.35790
10835.93695	0.35843
10832.07937	0.35615
10828.22180	0.35694
10824.36422	0.36151
10820.50664	0.35978
10816.64906	0.34833
10812.79148	0.34630
10808.93391	0.35993
10805.07633	0.36947
10801.21875	0.37046
10797.36117	0.36394
10793.50359	0.35435
10789.64602	0.35690
10785.78844	0.36583
10781.93086	0.36887
10778.07328	0.36659
10774.21570	0.36258
10770.35812	0.36051
10766.50055	0.36305
10762.64297	0.36713
10758.78539	0.36453
10754.92781	0.35866
10751.07023	0.36219
10747.21266	0.37060
10743.35508	0.36984
10739.49750	0.36389
10735.63992	0.35926
10731.78234	0.35225
10727.92477	0.35041
10724.06719	0.36027
10720.20961	0.37020
10716.35203	0.37131
10712.49445	0.36854
10708.63687	0.36929
10704.77930	0.37255
10700.92172	0.37285
10697.06414	0.36926
10693.20656	0.36568
10689.34898	0.36862
10685.49141	0.37223
10681.63383	0.36963
10677.77625	0.36960
10673.91867	0.37216
10670.06109	0.37260
10666.20352	0.37392
10662.34594	0.37309
10658.48836	0.36535
10654.63078	0.36077
10650.77320	0.36618
10646.91562	0.36924
10643.05805	0.37360
10639.20047	0.38129
10635.34289	0.37581
10631.48531	0.37143
10627.62773	0.37568
10623.77016	0.37248
10619.91258	0.37005
10616.05500	0.37362
10612.19742	0.37710
10608.33984	0.37674
10604.48227	0.37213
10600.62469	0.36967
10596.76711	0.36080
10592.90953	0.35125
10589.05195	0.36017
10585.19437	0.37147
10581.33680	0.37182
10577.47922	0.37239
10573.62164	0.37815
10569.76406	0.38102
10565.90648	0.37451
10562.04891	0.37328
10558.19133	0.37947
10554.33375	0.37654
10550.47617	0.36816
10546.61859	0.36297
10542.76102	0.36479
10538.90344	0.37428
10535.04586	0.38030
10531.18828	0.38117
10527.33070	0.38088
10523.47312	0.37696
10519.61555	0.37679
10515.75797	0.37778
10511.90039	0.37300
10508.04281	0.37525
10504.18523	0.37835
10500.32766	0.37337
10496.47008	0.37456
10492.61250	0.38299
10488.75492	0.38950
10484.89734	0.38658
10481.03977	0.37750
10477.18219	0.37252
10473.32461	0.37205
10469.46703	0.37692
10465.60945	0.38206
10461.75187	0.38132
10457.89430	0.37760
10454.03672	0.37395
10450.17914	0.37655
10446.32156	0.38417
10442.46398	0.38493
10438.60641	0.37694
10434.74883	0.37431
10430.89125	0.37737
10427.03367	0.37438
10423.17609	0.37264
10419.31852	0.37748
10415.46094	0.38663
10411.60336	0.39749
10407.74578	0.39748
10403.88820	0.38842
10400.03062	0.38154
10396.17305	0.37645
10392.31547	0.37494
10388.45789	0.37765
10384.60031	0.37940
10380.74273	0.38092
10376.88516	0.38073
10373.02758	0.37936
10369.17000	0.38555
10365.31242	0.38990
10361.45484	0.38472
10357.59727	0.38354
10353.73969	0.38579
10349.88211	0.38536
10346.02453	0.38506
10342.16695	0.38644
10338.30937	0.38885
10334.45180	0.38989
10330.59422	0.39113
10326.73664	0.39044
10322.87906	0.38726
10319.02148	0.38603
10315.16391	0.38582
10311.30633	0.38628
10307.44875	0.38283
10303.59117	0.38031
10299.73359	0.38708
10295.87602	0.38916
10292.01844	0.38512
10288.16086	0.38802
10284.30328	0.39374
10280.44570	0.39300
10276.58812	0.38631
10272.73055	0.38353
10268.87297	0.38696
10265.01539	0.39071
10261.15781	0.39192
10257.30023	0.38779
10253.44266	0.38334
10249.58508	0.38242
10245.72750	0.38098
10241.86992	0.38351
10238.01234	0.38789
10234.15477	0.38837
10230.29719	0.39018
10226.43961	0.39020
10222.58203	0.38681
10218.72445	0.38544
10214.86687	0.38759
10211.00930	0.39327
10207.15172	0.39474
10203.29414	0.39019
10199.43656	0.38785
10195.57898	0.38747
10191.72141	0.38504
10187.86383	0.38538
10184.00625	0.39278
10180.14867	0.39626
10176.29109	0.39294
10172.43352	0.39432
10168.57594	0.39784
10164.71836	0.39480
10160.86078	0.39091
10157.00320	0.39227
10153.14562	0.39102
10149.28805	0.38667
10145.43047	0.38687
10141.57289	0.39024
10137.71531	0.39437
10133.85773	0.39755
10130.00016	0.39743
10126.14258	0.39204
10122.28500	0.38940
10118.42742	0.39443
10114.56984	0.39708
10110.71227	0.39918
10106.85469	0.40025
10102.99711	0.39692
10099.13953	0.39685
10095.28195	0.39380
10091.42437	0.38953
10087.56680	0.39510
10083.70922	0.40169
10079.85164	0.40188
10075.99406	0.39828
10072.13648	0.39624
10068.27891	0.39919
10064.42133	0.39961
10060.56375	0.39633
10056.70617	0.39810
10052.84859	0.40053
10048.99102	0.39912
10045.13344	0.39946
10041.27586	0.40019
10037.41828	0.39967
10033.56070	0.40089
10029.70312	0.40116
10025.84555	0.39826
10021.98797	0.39685
10018.13039	0.39933
10014.27281	0.40090
10010.41523	0.39920
10006.55766	0.40069
10002.70008	0.40439
9998.84250	0.40182
9994.98492	0.39976
9991.12734	0.40119
9987.26977	0.39908
9983.41219	0.39677
9979.55461	0.39441
9975.69703	0.39425
9971.83945	0.39902
9967.98187	0.40112
9964.12430	0.40241
9960.26672	0.40316
9956.40914	0.40058
9952.55156	0.39891
9948.69398	0.39778
9944.83641	0.40060
9940.97883	0.40414
9937.12125	0.39960
9933.26367	0.39564
9929.40609	0.39610
9925.54852	0.39567
9921.69094	0.39756
9917.83336	0.40168
9913.97578	0.40247
9910.11820	0.40021
9906.26062	0.39983
9902.40305	0.40040
9898.54547	0.40042
9894.68789	0.40161
9890.83031	0.40338
9886.97273	0.40683
9883.11516	0.40625
9879.25758	0.40013
9875.40000	0.39761
9871.54242	0.39634
9867.68484	0.39600
9863.82727	0.39992
9859.96969	0.40266
9856.11211	0.40360
9852.25453	0.40425
9848.39695	0.40561
9844.53937	0.40853
9840.68180	0.40767
9836.82422	0.40140
9832.96664	0.40080
9829.10906	0.40980
9825.25148	0.41325
9821.39391	0.40811
9817.53633	0.40606
9813.67875	0.40705
9809.82117	0.40784
9805.96359	0.40869
9802.10602	0.40871
9798.24844	0.40850
9794.39086	0.40950
9790.53328	0.40892
9786.67570	0.40512
9782.81812	0.40420
9778.96055	0.40538
9775.10297	0.40526
9771.24539	0.40988
9767.38781	0.41455
9763.53023	0.40991
9759.67266	0.40614
9755.81508	0.41020
9751.95750	0.41115
9748.09992	0.40861
9744.24234	0.40976
9740.38477	0.41219
9736.52719	0.41403
9732.66961	0.41209
9728.81203	0.40897
9724.95445	0.41154
9721.09687	0.41172
9717.23930	0.40765
9713.38172	0.40797
9709.52414	0.40986
9705.66656	0.41019
9701.80898	0.41184
9697.95141	0.41246
9694.09383	0.41012
9690.23625	0.41048
9686.37867	0.41346
9682.52109	0.41375
9678.66352	0.41342
9674.80594	0.41402
9670.94836	0.41278
9667.09078	0.41321
9663.23320	0.41768
9659.37562	0.41704
9655.51805	0.41296
9651.66047	0.41586
9647.80289	0.41807
9643.94531	0.41340
9640.08773	0.41008
9636.23016	0.41182
9632.37258	0.41373
9628.51500	0.41317
9624.65742	0.41462
9620.79984	0.41530
9616.94227	0.41200
9613.08469	0.41344
9609.22711	0.41877
9605.36953	0.41838
9601.51195	0.41539
9597.65437	0.41548
9593.79680	0.41588
9589.93922	0.41529
9586.08164	0.41404
9582.22406	0.41408
9578.36648	0.41778
9574.50891	0.41981
9570.65133	0.41861
9566.79375	0.41856
9562.93617	0.41942
9559.07859	0.42028
9555.22102	0.42128
9551.36344	0.42129
9547.50586	0.42072
9543.64828	0.42153
9539.79070	0.42202
9535.93312	0.42137
9532.07555	0.42156
9528.21797	0.42253
9524.36039	0.42503
9520.50281	0.42649
9516.64523	0.42440
9512.78766	0.42091
9508.93008	0.41912
9505.07250	0.42194
9501.21492	0.42244
9497.35734	0.42017
9493.49977	0.42464
9489.64219	0.42570
9485.78461	0.41864
9481.92703	0.42013
9478.06945	0.42676
9474.21187	0.42332
9470.35430	0.41866
9466.49672	0.42101
9462.63914	0.42218
9458.78156	0.42224
9454.92398	0.42326
9451.06641	0.42257
9447.20883	0.42232
9443.35125	0.42454
9439.49367	0.42730
9435.63609	0.42581
9431.77852	0.42240
9427.92094	0.42226
9424.06336	0.42349
9420.20578	0.42418
9416.34820	0.42354
9412.49062	0.42353
9408.63305	0.42506
9404.77547	0.42510
9400.91789	0.42304
9397.06031	0.42159
9393.20273	0.42458
9389.34516	0.42806
9385.48758	0.42874
9381.63000	0.42982
9377.77242	0.42977
9373.91484	0.43030
9370.05727	0.43203
9366.19969	0.43108
9362.34211	0.42893
9358.48453	0.42745
9354.62695	0.42893
9350.76937	0.43046
9346.91180	0.42854
9343.05422	0.43052
9339.19664	0.43571
9335.33906	0.43575
9331.48148	0.43067
9327.62391	0.42648
9323.76633	0.42881
9319.90875	0.43245
9316.05117	0.43124
9312.19359	0.43063
9308.33602	0.43122
9304.47844	0.43132
9300.62086	0.43282
9296.76328	0.43333
9292.90570	0.43423
9289.04812	0.43556
9285.19055	0.43317
9281.33297	0.43120
9277.47539	0.43091
9273.61781	0.42960
9269.76023	0.43122
9265.90266	0.43377
9262.04508	0.43271
9258.18750	0.43203
9254.32992	0.43362
9250.47234	0.43416
9246.61477	0.43298
9242.75719	0.43222
9238.89961	0.43246
9235.04203	0.43326
9231.18445	0.43392
9227.32687	0.43404
9223.46930	0.43604
9219.61172	0.43872
9215.75414	0.43856
9211.89656	0.43599
9208.03898	0.43327
9204.18141	0.43406
9200.32383	0.43556
9196.46625	0.43560
9192.60867	0.43774
9188.75109	0.43768
9184.89352	0.43785
9181.03594	0.44273
9177.17836	0.44188
9173.32078	0.43557
9169.46320	0.43507
9165.60562	0.43914
9161.74805	0.44025
9157.89047	0.44007
9154.03289	0.44099
9150.17531	0.43856
9146.31773	0.43606
9142.46016	0.43744
9138.60258	0.43863
9134.74500	0.43998
9130.88742	0.44144
9127.02984	0.44098
9123.17227	0.44164
9119.31469	0.44423
9115.45711	0.44448
9111.59953	0.44167
9107.74195	0.44009
9103.88437	0.43998
9100.02680	0.43889
9096.16922	0.44029
9092.31164	0.44543
9088.45406	0.44749
9084.59648	0.44506
9080.73891	0.44445
9076.88133	0.44600
9073.02375	0.44288
9069.16617	0.43855
9065.30859	0.44227
9061.45102	0.44533
9057.59344	0.44299
9053.73586	0.44439
9049.87828	0.44632
9046.02070	0.44607
9042.16312	0.44487
9038.30555	0.44258
9034.44797	0.44485
9030.59039	0.44877
9026.73281	0.44975
9022.87523	0.44980
9019.01766	0.44887
9015.16008	0.44832
9011.30250	0.44726
9007.44492	0.44477
9003.58734	0.44460
8999.72977	0.44845
8995.87219	0.45179
8992.01461	0.44975
8988.15703	0.44609
8984.29945	0.44478
8980.44187	0.44563
8976.58430	0.44740
8972.72672	0.44722
8968.86914	0.44710
8965.01156	0.44779
8961.15398	0.44649
8957.29641	0.44532
8953.43883	0.44450
8949.58125	0.44363
8945.72367	0.44554
8941.86609	0.44854
8938.00852	0.45015
8934.15094	0.45125
8930.29336	0.45277
8926.43578	0.45398
8922.57820	0.45248
8918.72062	0.45030
8914.86305	0.45125
8911.00547	0.45327
8907.14789	0.45562
8903.29031	0.45833
8899.43273	0.45767
8895.57516	0.45479
8891.71758	0.45265
8887.86000	0.45159
8884.00242	0.45352
8880.14484	0.45680
8876.28727	0.45762
8872.42969	0.45587
8868.57211	0.45323
8864.71453	0.45232
8860.85695	0.45411
8856.99937	0.45508
8853.14180	0.45402
8849.28422	0.45391
8845.42664	0.45458
8841.56906	0.45525
8837.71148	0.45692
8833.85391	0.45943
8829.99633	0.46052
8826.13875	0.45716
8822.28117	0.45352
8818.42359	0.45366
8814.56602	0.45509
8810.70844	0.45747
8806.85086	0.45943
8802.99328	0.46085
8799.13570	0.46066
8795.27812	0.45662
8791.42055	0.45505
8787.56297	0.45743
8783.70539	0.45883
8779.84781	0.46004
8775.99023	0.46137
8772.13266	0.46039
8768.27508	0.45810
8764.41750	0.45908
8760.55992	0.46141
8756.70234	0.46055
8752.84477	0.45924
8748.98719	0.45955
8745.12961	0.46112
8741.27203	0.46294
8737.41445	0.46353
8733.55687	0.46262
8729.69930	0.46110
8725.84172	0.46186
8721.98414	0.46348
8718.12656	0.46242
8714.26898	0.45972
8710.41141	0.45874
8706.55383	0.46197
8702.69625	0.46481
8698.83867	0.46312
8694.98109	0.46049
8691.12352	0.45976
8687.26594	0.46212
8683.40836	0.46595
8679.55078	0.46714
8675.69320	0.46586
8671.83562	0.46633
8667.97805	0.46810
8664.12047	0.46656
8660.26289	0.46438
8656.40531	0.46373
8652.54773	0.46359
8648.69016	0.46691
8644.83258	0.47043
8640.97500	0.47001
8637.11742	0.46842
8633.25984	0.46865
8629.40227	0.46984
8625.54469	0.46879
8621.68711	0.46799
8617.82953	0.46766
8613.97195	0.46617
8610.11437	0.46791
8606.25680	0.47009
8602.39922	0.46928
8598.54164	0.46896
8594.68406	0.46872
8590.82648	0.46807
8586.96891	0.46899
8583.11133	0.46996
8579.25375	0.46871
8575.39617	0.46788
8571.53859	0.47035
8567.68102	0.47395
8563.82344	0.47346
8559.96586	0.46968
8556.10828	0.46969
8552.25070	0.47142
8548.39312	0.47005
8544.53555	0.46964
8540.67797	0.47180
8536.82039	0.47373
8532.96281	0.47384
8529.10523	0.47243
8525.24766	0.47134
8521.39008	0.47158
8517.53250	0.47296
8513.67492	0.47360
8509.81734	0.47198
8505.95977	0.47153
8502.10219	0.47348
8498.24461	0.47381
8494.38703	0.47437
8490.52945	0.47607
8486.67187	0.47505
8482.81430	0.47549
8478.95672	0.47709
8475.09914	0.47483
8471.24156	0.47405
8467.38398	0.47585
8463.52641	0.47632
8459.66883	0.47715
8455.81125	0.47850
8451.95367	0.47880
8448.09609	0.47742
8444.23852	0.47571
8440.38094	0.47611
8436.52336	0.47732
8432.66578	0.47781
8428.80820	0.47833
8424.95062	0.47824
8421.09305	0.47720
8417.23547	0.47672
8413.37789	0.47667
8409.52031	0.47697
8405.66273	0.47795
8401.80516	0.47843
8397.94758	0.47921
8394.09000	0.47952
8390.23242	0.47777
8386.37484	0.47710
8382.51727	0.47876
8378.65969	0.48003
8374.80211	0.47926
8370.94453	0.47815
8367.08695	0.47820
8363.22937	0.47901
8359.37180	0.48022
8355.51422	0.47958
8351.65664	0.47851
8347.79906	0.47978
8343.94148	0.48027
8340.08391	0.47991
8336.22633	0.48158
8332.36875	0.48341
8328.51117	0.48216
8324.65359	0.48011
8320.79602	0.48052
8316.93844	0.48142
8313.08086	0.48174
8309.22328	0.48142
8305.36570	0.48157
8301.50812	0.48314
8297.65055	0.48299
8293.79297	0.48295
8289.93539	0.48495
8286.07781	0.48505
8282.22023	0.48378
8278.36266	0.48401
8274.50508	0.48470
8270.64750	0.48469
8266.78992	0.48483
8262.93234	0.48485
8259.07477	0.48506
8255.21719	0.48640
8251.35961	0.48568
8247.50203	0.48287
8243.64445	0.48346
8239.78687	0.48674
8235.92930	0.48670
8232.07172	0.48391
8228.21414	0.48418
8224.35656	0.48666
8220.49898	0.48625
8216.64141	0.48511
8212.78383	0.48646
8208.92625	0.48748
8205.06867	0.48729
8201.21109	0.48604
8197.35352	0.48451
8193.49594	0.48594
8189.63836	0.48723
8185.78078	0.48582
8181.92320	0.48599
8178.06562	0.48845
8174.20805	0.48940
8170.35047	0.48724
8166.49289	0.48523
8162.63531	0.48549
8158.77773	0.48605
8154.92016	0.48585
8151.06258	0.48597
8147.20500	0.48787
8143.34742	0.48968
8139.48984	0.48978
8135.63227	0.49016
8131.77469	0.49062
8127.91711	0.48938
8124.05953	0.48769
8120.20195	0.48819
8116.34437	0.48909
8112.48680	0.48910
8108.62922	0.49075
8104.77164	0.49126
8100.91406	0.48937
8097.05648	0.48797
8093.19891	0.48744
8089.34133	0.48842
8085.48375	0.48886
8081.62617	0.48881
8077.76859	0.49110
8073.91102	0.49177
8070.05344	0.49026
8066.19586	0.49028
8062.33828	0.49078
8058.48070	0.49117
8054.62312	0.49109
8050.76555	0.49021
8046.90797	0.49052
8043.05039	0.49235
8039.19281	0.49347
8035.33523	0.49214
8031.47766	0.49087
8027.62008	0.49146
8023.76250	0.49094
8019.90492	0.49013
8016.04734	0.49081
8012.18977	0.49117
8008.33219	0.49096
8004.47461	0.49030
8000.61703	0.49094
7996.75945	0.49342
7992.90187	0.49318
7989.04430	0.49116
7985.18672	0.49140
7981.32914	0.49261
7977.47156	0.49311
7973.61398	0.49226
7969.75641	0.49082
7965.89883	0.49094
7962.04125	0.49290
7958.18367	0.49383
7954.32609	0.49265
7950.46852	0.49284
7946.61094	0.49382
7942.75336	0.49356
7938.89578	0.49343
7935.03820	0.49298
7931.18062	0.49269
7927.32305	0.49275
7923.46547	0.49287
7919.60789	0.49386
7915.75031	0.49370
7911.89273	0.49244
7908.03516	0.49271
7904.17758	0.49443
7900.32000	0.49511
7896.46242	0.49477
7892.60484	0.49530
7888.74727	0.49475
7884.88969	0.49298
7881.03211	0.49222
7877.17453	0.49269
7873.31695	0.49378
7869.45937	0.49499
7865.60180	0.49653
7861.74422	0.49615
7857.88664	0.49503
7854.02906	0.49585
7850.17148	0.49516
7846.31391	0.49388
7842.45633	0.49412
7838.59875	0.49418
7834.74117	0.49494
7830.88359	0.49583
7827.02602	0.49595
7823.16844	0.49646
7819.31086	0.49636
7815.45328	0.49489
7811.59570	0.49415
7807.73812	0.49518
7803.88055	0.49620
7800.02297	0.49552
7796.16539	0.49437
7792.30781	0.49539
7788.45023	0.49729
7784.59266	0.49751
7780.73508	0.49752
7776.87750	0.49802
7773.01992	0.49703
7769.16234	0.49580
7765.30477	0.49689
7761.44719	0.49837
7757.58961	0.49861
7753.73203	0.49862
7749.87445	0.49833
7746.01687	0.49723
7742.15930	0.49632
7738.30172	0.49657
7734.44414	0.49593
7730.58656	0.49518
7726.72898	0.49649
7722.87141	0.49671
7719.01383	0.49587
7715.15625	0.49680
7711.29867	0.49781
7707.44109	0.49706
7703.58352	0.49603
7699.72594	0.49625
7695.86836	0.49642
7692.01078	0.49626
7688.15320	0.49665
7684.29562	0.49715
7680.43805	0.49733
7676.58047	0.49707
7672.72289	0.49735
7668.86531	0.49808
7665.00773	0.49803
7661.15016	0.49773
7657.29258	0.49806
7653.43500	0.49874
7649.57742	0.49909
7645.71984	0.49898
7641.86227	0.49821
7638.00469	0.49754
7634.14711	0.49784
7630.28953	0.49854
7626.43195	0.49993
7622.57437	0.50115
7618.71680	0.50063
7614.85922	0.50002
7611.00164	0.50015
7607.14406	0.49936
7603.28648	0.49836
7599.42891	0.49886
7595.57133	0.49984
7591.71375	0.49969
7587.85617	0.49842
7583.99859	0.49829
7580.14102	0.49969
7576.28344	0.49969
7572.42586	0.49917
7568.56828	0.49934
7564.71070	0.49897
7560.85312	0.49872
7556.99555	0.49869
7553.13797	0.49923
7549.28039	0.50061
7545.42281	0.50093
7541.56523	0.49991
7537.70766	0.49911
7533.85008	0.49862
7529.99250	0.49814
7526.13492	0.49871
7522.27734	0.50000
7518.41977	0.50095
7514.56219	0.50128
7510.70461	0.50045
7506.84703	0.49934
7502.98945	0.49886
7499.13187	0.49883
7495.27430	0.49956
7491.41672	0.50073
7487.55914	0.50121
7483.70156	0.50078
7479.84398	0.50001
7475.98641	0.49909
7472.12883	0.49905
7468.27125	0.49931
7464.41367	0.49871
7460.55609	0.49900
7456.69852	0.49921
7452.84094	0.49882
7448.98336	0.49952
7445.12578	0.49961
7441.26820	0.49961
7437.41062	0.50077
7433.55305	0.50111
7429.69547	0.50074
7425.83789	0.50054
7421.98031	0.50059
7418.12273	0.50101
7414.26516	0.50078
7410.40758	0.49992
7406.55000	0.49956
7402.69242	0.49991
7398.83484	0.50088
7394.97727	0.50141
7391.11969	0.50078
7387.26211	0.50113
7383.40453	0.50243
7379.54695	0.50175
7375.68937	0.50007
7371.83180	0.50030
7367.97422	0.50057
7364.11664	0.49923
7360.25906	0.49921
7356.40148	0.50081
7352.54391	0.50129
7348.68633	0.50103
7344.82875	0.50145
7340.97117	0.50167
7337.11359	0.50064
7333.25602	0.50066
7329.39844	0.50244
7325.54086	0.50243
7321.68328	0.50089
7317.82570	0.50053
7313.96812	0.50079
7310.11055	0.50132
7306.25297	0.50154
7302.39539	0.50103
7298.53781	0.50072
7294.68023	0.50108
7290.82266	0.50165
7286.96508	0.50156
7283.10750	0.50137
7279.24992	0.50128
7275.39234	0.50105
7271.53477	0.50163
7267.67719	0.50190
7263.81961	0.50076
7259.96203	0.49997
7256.10445	0.50051
7252.24687	0.50107
7248.38930	0.50109
7244.53172	0.50119
7240.67414	0.50041
7236.81656	0.50005
7232.95898	0.50070
7229.10141	0.50023
7225.24383	0.50009
7221.38625	0.50073
7217.52867	0.50084
7213.67109	0.50115
7209.81352	0.50165
7205.95594	0.50153
7202.09836	0.50047
7198.24078	0.50015
7194.38320	0.50104
7190.52562	0.50136
7186.66805	0.50117
7182.81047	0.50168
7178.95289	0.50266
7175.09531	0.50260
7171.23773	0.50145
7167.38016	0.50078
7163.52258	0.50125
7159.66500	0.50249
7155.80742	0.50343
7151.94984	0.50255
7148.09227	0.50128
7144.23469	0.50153
7140.37711	0.50219
7136.51953	0.50264
7132.66195	0.50268
7128.80437	0.50150
7124.94680	0.50030
7121.08922	0.50088
7117.23164	0.50250
7113.37406	0.50253
7109.51648	0.50161
7105.65891	0.50146
7101.80133	0.50181
7097.94375	0.50236
7094.08617	0.50298
7090.22859	0.50296
7086.37102	0.50270
7082.51344	0.50267
7078.65586	0.50181
7074.79828	0.50034
7070.94070	0.50101
7067.08312	0.50267
7063.22555	0.50236
7059.36797	0.50200
7055.51039	0.50213
7051.65281	0.50132
7047.79523	0.50134
7043.93766	0.50223
7040.08008	0.50186
7036.22250	0.50112
7032.36492	0.50115
7028.50734	0.50205
7024.64977	0.50276
7020.79219	0.50191
7016.93461	0.50125
7013.07703	0.50203
7009.21945	0.50282
7005.36187	0.50309
7001.50430	0.50288
6997.64672	0.50171
6993.78914	0.50076
6989.93156	0.50154
6986.07398	0.50235
6982.21641	0.50237
6978.35883	0.50236
6974.50125	0.50127
6970.64367	0.50039
6966.78609	0.50133
6962.92852	0.50225
6959.07094	0.50228
6955.21336	0.50245
6951.35578	0.50297
6947.49820	0.50229
6943.64062	0.50098
6939.78305	0.50177
6935.92547	0.50308
6932.06789	0.50239
6928.21031	0.50155
6924.35273	0.50218
6920.49516	0.50288
6916.63758	0.50258
6912.78000	0.50233
6908.92242	0.50257
6905.06484	0.50295
6901.20727	0.50315
6897.34969	0.50270
6893.49211	0.50227
6889.63453	0.50255
6885.77695	0.50301
6881.91937	0.50316
6878.06180	0.50302
6874.20422	0.50327
6870.34664	0.50352
6866.48906	0.50306
6862.63148	0.50300
6858.77391	0.50316
6854.91633	0.50282
6851.05875	0.50311
6847.20117	0.50353
6843.34359	0.50285
6839.48602	0.50197
6835.62844	0.50188
6831.77086	0.50232
6827.91328	0.50262
6824.05570	0.50310
6820.19812	0.50353
6816.34055	0.50313
6812.48297	0.50315
6808.62539	0.50385
6804.76781	0.50391
6800.91023	0.50371
6797.05266	0.50367
6793.19508	0.50337
6789.33750	0.50282
6785.47992	0.50250
6781.62234	0.50273
6777.76477	0.50301
6773.90719	0.50338
6770.04961	0.50425
6766.19203	0.50430
6762.33445	0.50319
6758.47687	0.50300
6754.61930	0.50380
6750.76172	0.50332
6746.90414	0.50173
6743.04656	0.50128
6739.18898	0.50239
6735.33141	0.50340
6731.47383	0.50295
6727.61625	0.50226
6723.75867	0.50286
6719.90109	0.50322
6716.04352	0.50287
6712.18594	0.50344
6708.32836	0.50394
6704.47078	0.50313
6700.61320	0.50291
6696.75562	0.50391
6692.89805	0.50440
6689.04047	0.50485
6685.18289	0.50520
6681.32531	0.50402
6677.46773	0.50316
6673.61016	0.50361
6669.75258	0.50414
6665.89500	0.50445
6662.03742	0.50409
6658.17984	0.50341
6654.32227	0.50350
6650.46469	0.50408
6646.60711	0.50393
6642.74953	0.50332
6638.89195	0.50326
6635.03437	0.50347
6631.17680	0.50352
6627.31922	0.50353
6623.46164	0.50387
6619.60406	0.50382
6615.74648	0.50297
6611.88891	0.50279
6608.03133	0.50326
6604.17375	0.50384
6600.31617	0.50446
6596.45859	0.50440
6592.60102	0.50446
6588.74344	0.50493
6584.88586	0.50447
6581.02828	0.50380
6577.17070	0.50377
6573.31312	0.50403
6569.45555	0.50449
6565.59797	0.50440
6561.74039	0.50376
6557.88281	0.50335
6554.02523	0.50329
6550.16766	0.50365
6546.31008	0.50368
6542.45250	0.50340
6538.59492	0.50401
6534.73734	0.50466
6530.87977	0.50397
6527.02219	0.50342
6523.16461	0.50409
6519.30703	0.50445
6515.44945	0.50438
6511.59187	0.50434
6507.73430	0.50402
6503.87672	0.50420
6500.01914	0.50435
6496.16156	0.50369
6492.30398	0.50352
6488.44641	0.50419
6484.58883	0.50437
6480.73125	0.50404
6476.87367	0.50414
6473.01609	0.50449
6469.15852	0.50501
6465.30094	0.50558
6461.44336	0.50559
6457.58578	0.50521
6453.72820	0.50513
6449.87062	0.50533
6446.01305	0.50530
6442.15547	0.50539
6438.29789	0.50548
6434.44031	0.50538
6430.58273	0.50537
6426.72516	0.50485
6422.86758	0.50431
6419.01000	0.50463
6415.15242	0.50512
6411.29484	0.50501
6407.43727	0.50495
6403.57969	0.50545
6399.72211	0.50579
6395.86453	0.50576
6392.00695	0.50535
6388.14937	0.50502
6384.29180	0.50492
6380.43422	0.50457
6376.57664	0.50480
6372.71906	0.50524
6368.86148	0.50531
6365.00391	0.50549
6361.14633	0.50534
6357.28875	0.50516
6353.43117	0.50548
6349.57359	0.50580
6345.71602	0.50536
6341.85844	0.50426
6338.00086	0.50401
6334.14328	0.50512
6330.28570	0.50585
6326.42812	0.50538
6322.57055	0.50524
6318.71297	0.50553
6314.85539	0.50563
6310.99781	0.50633
6307.14023	0.50659
6303.28266	0.50558
6299.42508	0.50522
6295.56750	0.50554
6291.70992	0.50540
6287.85234	0.50552
6283.99477	0.50605
6280.13719	0.50625
6276.27961	0.50604
6272.42203	0.50567
6268.56445	0.50569
6264.70687	0.50596
6260.84930	0.50581
6256.99172	0.50540
6253.13414	0.50523
6249.27656	0.50560
6245.41898	0.50626
6241.56141	0.50656
6237.70383	0.50661
6233.84625	0.50683
6229.98867	0.50684
6226.13109	0.50634
6222.27352	0.50585
6218.41594	0.50563
6214.55836	0.50582
6210.70078	0.50642
6206.84320	0.50649
6202.98562	0.50606
6199.12805	0.50617
6195.27047	0.50668
6191.41289	0.50663
6187.55531	0.50612
6183.69773	0.50620
6179.84016	0.50680
6175.98258	0.50675
6172.12500	0.50613
6168.26742	0.50613
6164.40984	0.50674
6160.55227	0.50685
6156.69469	0.50657
6152.83711	0.50678
6148.97953	0.50703
6145.12195	0.50674
6141.26437	0.50678
6137.40680	0.50721
6133.54922	0.50726
6129.69164	0.50716
6125.83406	0.50689
6121.97648	0.50686
6118.11891	0.50734
6114.26133	0.50725
6110.40375	0.50723
6106.54617	0.50793
6102.68859	0.50800
6098.83102	0.50762
6094.97344	0.50749
6091.11586	0.50745
6087.25828	0.50767
6083.40070	0.50781
6079.54312	0.50742
6075.68555	0.50715
6071.82797	0.50746
6067.97039	0.50774
6064.11281	0.50771
6060.25523	0.50768
6056.39766	0.50781
6052.54008	0.50793
6048.68250	0.50778
6044.82492	0.50760
6040.96734	0.50794
6037.10977	0.50841
6033.25219	0.50831
6029.39461	0.50799
6025.53703	0.50776
6021.67945	0.50790
6017.82187	0.50862
6013.96430	0.50888
6010.10672	0.50884
6006.24914	0.50932
6002.39156	0.50924
5998.53398	0.50851
5994.67641	0.50828
5990.81883	0.50886
5986.96125	0.50964
5983.10367	0.50950
5979.24609	0.50887
5975.38852	0.50844
5971.53094	0.50837
5967.67336	0.50916
5963.81578	0.50995
5959.95820	0.50980
5956.10062	0.50964
5952.24305	0.50978
5948.38547	0.50945
5944.52789	0.50883
5940.67031	0.50897
5936.81273	0.50957
5932.95516	0.50956
5929.09758	0.50933
5925.24000	0.50950
5921.38242	0.50960
5917.52484	0.50943
5913.66727	0.50915
5909.80969	0.50902
5905.95211	0.50944
5902.09453	0.50996
5898.23695	0.50973
5894.37937	0.50913
5890.52180	0.50926
5886.66422	0.50979
5882.80664	0.50962
5878.94906	0.50952
5875.09148	0.50979
5871.23391	0.50940
5867.37633	0.50943
5863.51875	0.51046
5859.66117	0.51073
5855.80359	0.51012
5851.94602	0.51000
5848.08844	0.51033
5844.23086	0.51016
5840.37328	0.51002
5836.51570	0.51038
5832.65812	0.51022
5828.80055	0.50999
5824.94297	0.51051
5821.08539	0.51066
5817.22781	0.51034
5813.37023	0.51043
5809.51266	0.51102
5805.65508	0.51164
5801.79750	0.51134
5797.93992	0.51051
5794.08234	0.51054
5790.22477	0.51147
5786.36719	0.51223
5782.50961	0.51198
5778.65203	0.51146
5774.79445	0.51126
5770.93687	0.51082
5767.07930	0.51066
5763.22172	0.51095
5759.36414	0.51111
5755.50656	0.51154
5751.64898	0.51189
5747.79141	0.51179
5743.93383	0.51178
5740.07625	0.51142
5736.21867	0.51118
5732.36109	0.51188
5728.50352	0.51219
5724.64594	0.51177
5720.78836	0.51182
5716.93078	0.51214
5713.07320	0.51240
5709.21562	0.51267
5705.35805	0.51244
5701.50047	0.51245
5697.64289	0.51297
5693.78531	0.51285
5689.92773	0.51253
5686.07016	0.51253
5682.21258	0.51285
5678.35500	0.51357
5674.49742	0.51371
5670.63984	0.51322
5666.78227	0.51275
5662.92469	0.51266
5659.06711	0.51330
5655.20953	0.51352
5651.35195	0.51315
5647.49437	0.51348
5643.63680	0.51400
5639.77922	0.51402
5635.92164	0.51366
5632.06406	0.51328
5628.20648	0.51357
5624.34891	0.51400
5620.49133	0.51410
5616.63375	0.51421
5612.77617	0.51408
5608.91859	0.51373
5605.06102	0.51345
5601.20344	0.51353
5597.34586	0.51389
5593.48828	0.51418
5589.63070	0.51484
5585.77312	0.51515
5581.91555	0.51451
5578.05797	0.51440
5574.20039	0.51495
5570.34281	0.51490
5566.48523	0.51457
5562.62766	0.51482
5558.77008	0.51483
5554.91250	0.51444
5551.05492	0.51485
5547.19734	0.51563
5543.33977	0.51588
5539.48219	0.51580
5535.62461	0.51568
5531.76703	0.51580
5527.90945	0.51600
5524.05187	0.51576
5520.19430	0.51579
5516.33672	0.51633
5512.47914	0.51573
5508.62156	0.51496
5504.76398	0.51608
5500.90641	0.51688
5497.04883	0.51635
5493.19125	0.51612
5489.33367	0.51647
5485.47609	0.51681
5481.61852	0.51667
5477.76094	0.51663
5473.90336	0.51715
5470.04578	0.51685
5466.18820	0.51607
5462.33062	0.51609
5458.47305	0.51670
5454.61547	0.51718
5450.75789	0.51721
5446.90031	0.51692
5443.04273	0.51706
5439.18516	0.51782
5435.32758	0.51780
5431.47000	0.51730
5427.61242	0.51816
5423.75484	0.51911
5419.89727	0.51876
5416.03969	0.51749
5412.18211	0.51694
5408.32453	0.51783
5404.46695	0.51825
5400.60937	0.51795
5396.75180	0.51832
5392.89422	0.51997
5389.03664	0.52030
5385.17906	0.51929
5381.32148	0.51977
5377.46391	0.52024
5373.60633	0.51992
5369.74875	0.51992
5365.89117	0.51979
5362.03359	0.52001
5358.17602	0.51955
5354.31844	0.51911
5350.46086	0.52024
5346.60328	0.52066
5342.74570	0.52051
5338.88812	0.52060
5335.03055	0.52020
5331.17297	0.51983
5327.31539	0.52003
5323.45781	0.52063
5319.60023	0.52088
5315.74266	0.52104
5311.88508	0.52148
5308.02750	0.52120
5304.16992	0.52038
5300.31234	0.52067
5296.45477	0.52109
5292.59719	0.52045
5288.73961	0.52054
5284.88203	0.52085
5281.02445	0.52050
5277.16687	0.52113
5273.30930	0.52184
5269.45172	0.52138
5265.59414	0.52047
5261.73656	0.52035
5257.87898	0.52094
5254.02141	0.52182
5250.16383	0.52328
5246.30625	0.52391
5242.44867	0.52312
5238.59109	0.52267
5234.73352	0.52248
5230.87594	0.52261
5227.01836	0.52355
5223.16078	0.52402
5219.30320	0.52328
5215.44562	0.52311
5211.58805	0.52358
5207.73047	0.52325
5203.87289	0.52339
5200.01531	0.52401
5196.15773	0.52385
5192.30016	0.52350
5188.44258	0.52360
5184.58500	0.52428
5180.72742	0.52436
5176.86984	0.52345
5173.01227	0.52294
5169.15469	0.52297
5165.29711	0.52340
5161.43953	0.52430
5157.58195	0.52488
5153.72437	0.52469
5149.86680	0.52425
5146.00922	0.52445
5142.15164	0.52535
5138.29406	0.52590
5134.43648	0.52576
5130.57891	0.52561
5126.72133	0.52552
5122.86375	0.52525
5119.00617	0.52515
5115.14859	0.52536
5111.29102	0.52579
5107.43344	0.52601
5103.57586	0.52581
5099.71828	0.52585
5095.86070	0.52585
5092.00312	0.52545
5088.14555	0.52574
5084.28797	0.52635
5080.43039	0.52645
5076.57281	0.52646
5072.71523	0.52638
5068.85766	0.52622
5065.00008	0.52620
5061.14250	0.52649
5057.28492	0.52710
5053.42734	0.52748
5049.56977	0.52738
5045.71219	0.52727
5041.85461	0.52733
5037.99703	0.52736
5034.13945	0.52754
5030.28187	0.52780
5026.42430	0.52758
5022.56672	0.52702
5018.70914	0.52687
5014.85156	0.52775
5010.99398	0.52880
5007.13641	0.52866
5003.27883	0.52802
4999.42125	0.52816
4995.56367	0.52863
4991.70609	0.52857
4987.84852	0.52874
4983.99094	0.52923
4980.13336	0.52922
4976.27578	0.52925
4972.41820	0.52961
4968.56062	0.52994
4964.70305	0.52997
4960.84547	0.52987
4956.98789	0.52988
4953.13031	0.52969
4949.27273	0.52965
4945.41516	0.52982
4941.55758	0.52999
4937.70000	0.53036
4933.84242	0.53046
4929.98484	0.53068
4926.12727	0.53111
4922.26969	0.53069
4918.41211	0.53017
4914.55453	0.53033
4910.69695	0.53073
4906.83937	0.53137
4902.98180	0.53160
4899.12422	0.53135
4895.26664	0.53160
4891.40906	0.53175
4887.55148	0.53147
4883.69391	0.53142
4879.83633	0.53164
4875.97875	0.53200
4872.12117	0.53202
4868.26359	0.53200
4864.40602	0.53242
4860.54844	0.53262
4856.69086	0.53262
4852.83328	0.53238
4848.97570	0.53210
4845.11812	0.53242
4841.26055	0.53260
4837.40297	0.53247
4833.54539	0.53259
4829.68781	0.53271
4825.83023	0.53294
4821.97266	0.53326
4818.11508	0.53327
4814.25750	0.53326
4810.39992	0.53325
4806.54234	0.53313
4802.68477	0.53330
4798.82719	0.53361
4794.96961	0.53372
4791.11203	0.53367
4787.25445	0.53362
4783.39687	0.53406
4779.53930	0.53437
4775.68172	0.53382
4771.82414	0.53364
4767.96656	0.53417
4764.10898	0.53469
4760.25141	0.53498
4756.39383	0.53464
4752.53625	0.53445
4748.67867	0.53484
4744.82109	0.53482
4740.96352	0.53451
4737.10594	0.53461
4733.24836	0.53488
4729.39078	0.53520
4725.53320	0.53568
4721.67562	0.53585
4717.81805	0.53557
4713.96047	0.53539
4710.10289	0.53555
4706.24531	0.53591
4702.38773	0.53594
4698.53016	0.53561
4694.67258	0.53565
4690.81500	0.53587
4686.95742	0.53582
4683.09984	0.53603
4679.24227	0.53650
4675.38469	0.53667
4671.52711	0.53673
4667.66953	0.53694
4663.81195	0.53705
4659.95437	0.53691
4656.09680	0.53689
4652.23922	0.53727
4648.38164	0.53731
4644.52406	0.53692
4640.66648	0.53704
4636.80891	0.53763
4632.95133	0.53776
4629.09375	0.53761
4625.23617	0.53792
4621.37859	0.53779
4617.52102	0.53713
4613.66344	0.53716
4609.80586	0.53755
4605.94828	0.53791
4602.09070	0.53836
4598.23312	0.53842
4594.37555	0.53815
4590.51797	0.53812
4586.66039	0.53815
4582.80281	0.53802
4578.94523	0.53825
4575.08766	0.53861
4571.23008	0.53868
4567.37250	0.53878
4563.51492	0.53873
4559.65734	0.53852
4555.79977	0.53847
4551.94219	0.53850
4548.08461	0.53871
4544.22703	0.53891
4540.36945	0.53869
4536.51187	0.53855
4532.65430	0.53885
4528.79672	0.53888
4524.93914	0.53890
4521.08156	0.53947
4517.22398	0.53954
4513.36641	0.53913
4509.50883	0.53926
4505.65125	0.53937
4501.79367	0.53922
4497.93609	0.53953
4494.07852	0.53986
4490.22094	0.53972
4486.36336	0.53987
4482.50578	0.54029
4478.64820	0.54022
4474.79062	0.53988
4470.93305	0.53993
4467.07547	0.53997
4463.21789	0.53986
4459.36031	0.54006
4455.50273	0.53993
4451.64516	0.53950
4447.78758	0.53984
4443.93000	0.54051
4440.07242	0.54079
4436.21484	0.54083
4432.35727	0.54080
4428.49969	0.54084
4424.64211	0.54103
4420.78453	0.54116
4416.92695	0.54121
4413.06937	0.54117
4409.21180	0.54101
4405.35422	0.54119
4401.49664	0.54164
4397.63906	0.54168
4393.78148	0.54161
4389.92391	0.54167
4386.06633	0.54165
4382.20875	0.54147
4378.35117	0.54120
4374.49359	0.54121
4370.63602	0.54137
4366.77844	0.54150
4362.92086	0.54182
4359.06328	0.54196
4355.20570	0.54162
4351.34812	0.54126
4347.49055	0.54135
4343.63297	0.54163
4339.77539	0.54179
4335.91781	0.54196
4332.06023	0.54221
4328.20266	0.54243
4324.34508	0.54246
4320.48750	0.54229
4316.62992	0.54218
4312.77234	0.54220
4308.91477	0.54246
4305.05719	0.54274
4301.19961	0.54277
4297.34203	0.54269
4293.48445	0.54252
4289.62687	0.54259
4285.76930	0.54292
4281.91172	0.54288
4278.05414	0.54267
4274.19656	0.54279
4270.33898	0.54287
4266.48141	0.54287
4262.62383	0.54314
4258.76625	0.54332
4254.90867	0.54321
4251.05109	0.54306
4247.19352	0.54307
4243.33594	0.54310
4239.47836	0.54310
4235.62078	0.54316
4231.76320	0.54334
4227.90562	0.54384
4224.04805	0.54428
4220.19047	0.54397
4216.33289	0.54369
4212.47531	0.54394
4208.61773	0.54400
4204.76016	0.54389
4200.90258	0.54398
4197.04500	0.54411
4193.18742	0.54409
4189.32984	0.54401
4185.47227	0.54420
4181.61469	0.54451
4177.75711	0.54469
4173.89953	0.54456
4170.04195	0.54410
4166.18437	0.54408
4162.32680	0.54443
4158.46922	0.54423
4154.61164	0.54410
4150.75406	0.54452
4146.89648	0.54469
4143.03891	0.54482
4139.18133	0.54530
4135.32375	0.54519
4131.46617	0.54487
4127.60859	0.54506
4123.75102	0.54496
4119.89344	0.54488
4116.03586	0.54499
4112.17828	0.54474
4108.32070	0.54478
4104.46312	0.54513
4100.60555	0.54522
4096.74797	0.54539
4092.89039	0.54545
4089.03281	0.54506
4085.17523	0.54484
4081.31766	0.54506
4077.46008	0.54514
4073.60250	0.54526
4069.74492	0.54568
4065.88734	0.54599
4062.02977	0.54599
4058.17219	0.54574
4054.31461	0.54545
4050.45703	0.54541
4046.59945	0.54569
4042.74187	0.54600
4038.88430	0.54600
4035.02672	0.54567
4031.16914	0.54546
4027.31156	0.54576
4023.45398	0.54585
4019.59641	0.54563
4015.73883	0.54599
4011.88125	0.54625
4008.02367	0.54595
4004.16609	0.54608
4000.30852	0.54628
3996.45094	0.54589
3992.59336	0.54580
3988.73578	0.54624
3984.87820	0.54627
3981.02062	0.54603
3977.16305	0.54589
3973.30547	0.54569
3969.44789	0.54545
3965.59031	0.54562
3961.73273	0.54655
3957.87516	0.54725
3954.01758	0.54698
3950.16000	0.54606
3946.30242	0.54447
3942.44484	0.54442
3938.58727	0.54609
3934.72969	0.54683
3930.87211	0.54789
3927.01453	0.54793
3923.15695	0.54454
3919.29937	0.54277
3915.44180	0.54521
3911.58422	0.54754
3907.72664	0.54883
3903.86906	0.54875
3900.01148	0.54572
3896.15391	0.54387
3892.29633	0.54473
3888.43875	0.54674
3884.58117	0.54777
3880.72359	0.54832
3876.86602	0.55056
3873.00844	0.55336
3869.15086	0.54786
3865.29328	0.54324
3861.43570	0.54890
3857.57812	0.55327
3853.72055	0.55106
3849.86297	0.54850
3846.00539	0.55014
3842.14781	0.55017
3838.29023	0.55015
3834.43266	0.55205
3830.57508	0.54931
3826.71750	0.54751
3822.85992	0.54645
3819.00234	0.54613
3815.14477	0.54895
3811.28719	0.54757
3807.42961	0.54677
3803.57203	0.54835
3799.71445	0.54716
3795.85687	0.54886
3791.99930	0.54900
3788.14172	0.54702
3784.28414	0.54803
3780.42656	0.54842
3776.56898	0.54798
3772.71141	0.54999
3768.85383	0.54865
3764.99625	0.54615
3761.13867	0.54681
3757.28109	0.54390
3753.42352	0.53925
3749.56594	0.54369
3745.70836	0.55479
3741.85078	0.55457
3737.99320	0.55057
3734.13562	0.55213
3730.27805	0.55051
3726.42047	0.54820
3722.56289	0.55156
3718.70531	0.55314
3714.84773	0.55356
3710.99016	0.55470
3707.13258	0.55303
3703.27500	0.55045
3699.41742	0.54725
3695.55984	0.54645
3691.70227	0.54521
3687.84469	0.54280
3683.98711	0.54732
3680.12953	0.55077
3676.27195	0.54599
3672.41437	0.54502
3668.55680	0.54869
3664.69922	0.54951
3660.84164	0.55061
3656.98406	0.54871
3653.12648	0.54865
3649.26891	0.55244
3645.41133	0.54702
3641.55375	0.54721
3637.69617	0.55076
3633.83859	0.54846
3629.98102	0.54478
3626.12344	0.54746
3622.26586	0.54900
3618.40828	0.54783
3614.55070	0.54667
3610.69312	0.54810
3606.83555	0.54870
3602.97797	0.54774
3599.12039	0.54789
3595.26281	0.54817
3591.40523	0.54751
3587.54766	0.54684
3583.69008	0.54746
3579.83250	0.54807
3575.97492	0.54713
3572.11734	0.54653
3568.25977	0.54728
3564.40219	0.54707
3560.54461	0.54676
3556.68703	0.54625
3552.82945	0.54492
3548.97187	0.54506
3545.11430	0.54623
3541.25672	0.54584
3537.39914	0.54438
3533.54156	0.54400
3529.68398	0.54504
3525.82641	0.54438
3521.96883	0.54318
3518.11125	0.54374
3514.25367	0.54356
3510.39609	0.54316
3506.53852	0.54386
3502.68094	0.54363
3498.82336	0.54310
3494.96578	0.54376
3491.10820	0.54399
3487.25062	0.54346
3483.39305	0.54316
3479.53547	0.54286
3475.67789	0.54245
3471.82031	0.54244
3467.96273	0.54316
3464.10516	0.54347
3460.24758	0.54280
3456.39000	0.54214
3452.53242	0.54206
3448.67484	0.54312
3444.81727	0.54373
3440.95969	0.54256
3437.10211	0.54175
3433.24453	0.54175
3429.38695	0.54178
3425.52937	0.54204
3421.67180	0.54230
3417.81422	0.54190
3413.95664	0.54138
3410.09906	0.54140
3406.24148	0.54144
3402.38391	0.54136
3398.52633	0.54120
3394.66875	0.54098
3390.81117	0.54119
3386.95359	0.54163
3383.09602	0.54158
3379.23844	0.54111
3375.38086	0.54086
3371.52328	0.54100
3367.66570	0.54117
3363.80812	0.54101
3359.95055	0.54086
3356.09297	0.54111
3352.23539	0.54122
3348.37781	0.54111
3344.52023	0.54119
3340.66266	0.54151
3336.80508	0.54162
3332.94750	0.54129
3329.08992	0.54119
3325.23234	0.54134
3321.37477	0.54132
3317.51719	0.54137
3313.65961	0.54139
3309.80203	0.54109
3305.94445	0.54096
3302.08687	0.54144
3298.22930	0.54175
3294.37172	0.54145
3290.51414	0.54142
3286.65656	0.54164
3282.79898	0.54156
3278.94141	0.54144
3275.08383	0.54135
3271.22625	0.54136
3267.36867	0.54159
3263.51109	0.54185
3259.65352	0.54198
3255.79594	0.54170
3251.93836	0.54150
3248.08078	0.54192
3244.22320	0.54197
3240.36562	0.54164
3236.50805	0.54177
3232.65047	0.54205
3228.79289	0.54228
3224.93531	0.54262
3221.07773	0.54268
3217.22016	0.54244
3213.36258	0.54246
3209.50500	0.54270
3205.64742	0.54255
3201.78984	0.54234
3197.93227	0.54269
3194.07469	0.54295
3190.21711	0.54276
3186.35953	0.54262
3182.50195	0.54265
3178.64437	0.54279
3174.78680	0.54306
3170.92922	0.54324
3167.07164	0.54321
3163.21406	0.54333
3159.35648	0.54359
3155.49891	0.54357
3151.64133	0.54343
3147.78375	0.54343
3143.92617	0.54362
3140.06859	0.54387
3136.21102	0.54385
3132.35344	0.54359
3128.49586	0.54347
3124.63828	0.54383
3120.78070	0.54454
3116.92312	0.54486
3113.06555	0.54466
3109.20797	0.54440
3105.35039	0.54417
3101.49281	0.54403
3097.63523	0.54438
3093.77766	0.54481
3089.92008	0.54469
3086.06250	0.54447
3082.20492	0.54452
3078.34734	0.54464
3074.48977	0.54475
3070.63219	0.54468
3066.77461	0.54474
3062.91703	0.54519
3059.05945	0.54546
3055.20187	0.54524
3051.34430	0.54481
3047.48672	0.54473
3043.62914	0.54508
3039.77156	0.54531
3035.91398	0.54546
3032.05641	0.54580
3028.19883	0.54576
3024.34125	0.54535
3020.48367	0.54519
3016.62609	0.54522
3012.76852	0.54536
3008.91094	0.54567
3005.05336	0.54574
3001.19578	0.54563
2997.33820	0.54561
2993.48062	0.54554
2989.62305	0.54550
2985.76547	0.54555
2981.90789	0.54541
2978.05031	0.54521
2974.19273	0.54508
2970.33516	0.54485
2966.47758	0.54447
2962.62000	0.54399
2958.76242	0.54367
2954.90484	0.54358
2951.04727	0.54345
2947.18969	0.54330
2943.33211	0.54301
2939.47453	0.54241
2935.61695	0.54182
2931.75937	0.54117
2927.90180	0.54038
2924.04422	0.53989
2920.18664	0.53981
2916.32906	0.54047
2912.47148	0.54190
2908.61391	0.54313
2904.75633	0.54380
2900.89875	0.54423
2897.04117	0.54441
2893.18359	0.54447
2889.32602	0.54468
2885.46844	0.54503
2881.61086	0.54530
2877.75328	0.54526
2873.89570	0.54509
2870.03812	0.54503
2866.18055	0.54499
2862.32297	0.54489
2858.46539	0.54445
2854.60781	0.54376
2850.75023	0.54380
2846.89266	0.54477
2843.03508	0.54586
2839.17750	0.54667
2835.31992	0.54705
2831.46234	0.54709
2827.60477	0.54730
2823.74719	0.54779
2819.88961	0.54804
2816.03203	0.54799
2812.17445	0.54802
2808.31687	0.54807
2804.45930	0.54802
2800.60172	0.54797
2796.74414	0.54795
2792.88656	0.54785
2789.02898	0.54778
2785.17141	0.54808
2781.31383	0.54852
2777.45625	0.54855
2773.59867	0.54845
2769.74109	0.54839
2765.88352	0.54826
2762.02594	0.54831
2758.16836	0.54846
2754.31078	0.54859
2750.45320	0.54864
2746.59562	0.54852
2742.73805	0.54876
2738.88047	0.54906
2735.02289	0.54905
2731.16531	0.54904
2727.30773	0.54876
2723.45016	0.54839
2719.59258	0.54848
2715.73500	0.54867
2711.87742	0.54881
2708.01984	0.54892
2704.16227	0.54884
2700.30469	0.54866
2696.44711	0.54871
2692.58953	0.54887
2688.73195	0.54895
2684.87437	0.54916
2681.01680	0.54916
2677.15922	0.54898
2673.30164	0.54913
2669.44406	0.54910
2665.58648	0.54893
2661.72891	0.54907
2657.87133	0.54917
2654.01375	0.54924
2650.15617	0.54923
2646.29859	0.54897
2642.44102	0.54872
2638.58344	0.54866
2634.72586	0.54894
2630.86828	0.54926
2627.01070	0.54928
2623.15312	0.54926
2619.29555	0.54924
2615.43797	0.54939
2611.58039	0.54951
2607.72281	0.54927
2603.86523	0.54904
2600.00766	0.54891
2596.15008	0.54906
2592.29250	0.54927
2588.43492	0.54899
2584.57734	0.54896
2580.71977	0.54930
2576.86219	0.54940
2573.00461	0.54926
2569.14703	0.54903
2565.28945	0.54909
2561.43187	0.54924
2557.57430	0.54927
2553.71672	0.54934
2549.85914	0.54926
2546.00156	0.54895
2542.14398	0.54870
2538.28641	0.54903
2534.42883	0.54927
2530.57125	0.54880
2526.71367	0.54885
2522.85609	0.54915
2518.99852	0.54879
2515.14094	0.54862
2511.28336	0.54875
2507.42578	0.54865
2503.56820	0.54865
2499.71062	0.54892
2495.85305	0.54906
2491.99547	0.54896
2488.13789	0.54893
2484.28031	0.54893
2480.42273	0.54874
2476.56516	0.54880
2472.70758	0.54922
2468.85000	0.54921
2464.99242	0.54875
2461.13484	0.54856
2457.27727	0.54871
2453.41969	0.54878
2449.56211	0.54896
2445.70453	0.54934
2441.84695	0.54905
2437.98937	0.54850
2434.13180	0.54880
2430.27422	0.54900
2426.41664	0.54881
2422.55906	0.54906
2418.70148	0.54930
2414.84391	0.54927
2410.98633	0.54917
2407.12875	0.54879
2403.27117	0.54850
2399.41359	0.54856
2395.55602	0.54876
2391.69844	0.54893
2387.84086	0.54870
2383.98328	0.54798
2380.12570	0.54646
2376.26812	0.54435
2372.41055	0.54413
2368.55297	0.54211
2364.69539	0.53581
2360.83781	0.54224
2356.98023	0.55400
2353.12266	0.54825
2349.26508	0.53620
2345.40750	0.53053
2341.54992	0.54023
2337.69234	0.54385
2333.83477	0.54083
2329.97719	0.53902
2326.11961	0.54066
2322.26203	0.54686
2318.40445	0.54732
2314.54687	0.54484
2310.68930	0.54359
2306.83172	0.54451
2302.97414	0.54591
2299.11656	0.54660
2295.25898	0.54735
2291.40141	0.54751
2287.54383	0.54798
2283.68625	0.54879
2279.82867	0.54806
2275.97109	0.54754
2272.11352	0.54808
2268.25594	0.54806
2264.39836	0.54797
2260.54078	0.54754
2256.68320	0.54720
2252.82562	0.54775
2248.96805	0.54804
2245.11047	0.54803
2241.25289	0.54797
2237.39531	0.54780
2233.53773	0.54763
2229.68016	0.54728
2225.82258	0.54719
2221.96500	0.54740
2218.10742	0.54799
2214.24984	0.54847
2210.39227	0.54746
2206.53469	0.54630
2202.67711	0.54651
2198.81953	0.54745
2194.96195	0.54853
2191.10437	0.54821
2187.24680	0.54649
2183.38922	0.54579
2179.53164	0.54632
2175.67406	0.54752
2171.81648	0.54865
2167.95891	0.54828
2164.10133	0.54739
2160.24375	0.54726
2156.38617	0.54739
2152.52859	0.54724
2148.67102	0.54668
2144.81344	0.54658
2140.95586	0.54695
2137.09828	0.54669
2133.24070	0.54659
2129.38312	0.54750
2125.52555	0.54828
2121.66797	0.54834
2117.81039	0.54782
2113.95281	0.54676
2110.09523	0.54570
2106.23766	0.54480
2102.38008	0.54546
2098.52250	0.54660
2094.66492	0.54452
2090.80734	0.54373
2086.94977	0.54569
2083.09219	0.54513
2079.23461	0.54629
2075.37703	0.54797
2071.51945	0.54472
2067.66187	0.54368
2063.80430	0.54457
2059.94672	0.54338
2056.08914	0.54543
2052.23156	0.54737
2048.37398	0.54632
2044.51641	0.54764
2040.65883	0.54711
2036.80125	0.54179
2032.94367	0.53803
2029.08609	0.53739
2025.22852	0.53931
2021.37094	0.54433
2017.51336	0.54705
2013.65578	0.54195
2009.79820	0.53675
2005.94062	0.53797
2002.08305	0.54117
1998.22547	0.54507
1994.36789	0.54813
1990.51031	0.54408
1986.65273	0.53936
1982.79516	0.54024
1978.93758	0.54076
1975.08000	0.54085
1971.22242	0.54242
1967.36484	0.54127
1963.50727	0.54104
1959.64969	0.54509
1955.79211	0.54630
1951.93453	0.54162
1948.07695	0.53625
1944.21937	0.53548
1940.36180	0.54152
1936.50422	0.54647
1932.64664	0.54307
1928.78906	0.53822
1924.93148	0.53786
1921.07391	0.53871
1917.21633	0.54331
1913.35875	0.54605
1909.50117	0.54154
1905.64359	0.53848
1901.78602	0.53801
1897.92844	0.53659
1894.07086	0.53775
1890.21328	0.54113
1886.35570	0.54223
1882.49812	0.54230
1878.64055	0.54182
1874.78297	0.53907
1870.92539	0.53829
1867.06781	0.54064
1863.21023	0.54225
1859.35266	0.54243
1855.49508	0.53839
1851.63750	0.53721
1847.77992	0.54336
1843.92234	0.54475
1840.06477	0.54036
1836.20719	0.54079
1832.34961	0.54128
1828.49203	0.53806
1824.63445	0.53996
1820.77687	0.54478
1816.91930	0.54504
1813.06172	0.54319
1809.20414	0.54057
1805.34656	0.53797
1801.48898	0.53688
1797.63141	0.53402
1793.77383	0.53099
1789.91625	0.53535
1786.05867	0.54194
1782.20109	0.54433
1778.34352	0.54363
1774.48594	0.54488
1770.62836	0.54408
1766.77078	0.54225
1762.91320	0.54712
1759.05562	0.54696
1755.19805	0.53854
1751.34047	0.53483
1747.48289	0.52987
1743.62531	0.52637
1739.76773	0.53356
1735.91016	0.53936
1732.05258	0.53607
1728.19500	0.53424
1724.33742	0.53500
1720.47984	0.53465
1716.62227	0.53044
1712.76469	0.52980
1708.90711	0.53088
1705.04953	0.52933
1701.19195	0.53169
1697.33437	0.54102
1693.47680	0.53724
1689.61922	0.52848
1685.76164	0.52298
1681.90406	0.52677
1678.04648	0.53076
1674.18891	0.52730
1670.33133	0.52281
1666.47375	0.52739
1662.61617	0.53069
1658.75859	0.53256
1654.90102	0.53628
1651.04344	0.53451
1647.18586	0.52991
1643.32828	0.52927
1639.47070	0.52925
1635.61312	0.52869
1631.75555	0.53027
1627.89797	0.53435
1624.04039	0.53536
1620.18281	0.53002
1616.32523	0.52999
1612.46766	0.53624
1608.61008	0.53595
1604.75250	0.53272
1600.89492	0.53388
1597.03734	0.53377
1593.17977	0.53276
1589.32219	0.53632
1585.46461	0.53870
1581.60703	0.53548
1577.74945	0.52962
1573.89187	0.52586
1570.03430	0.52774
1566.17672	0.53229
1562.31914	0.53612
1558.46156	0.53927
1554.60398	0.53290
1550.74641	0.52973
1546.88883	0.53216
1543.03125	0.53476
1539.17367	0.53801
1535.31609	0.53765
1531.45852	0.53958
1527.60094	0.54570
1523.74336	0.53885
1519.88578	0.52690
1516.02820	0.53599
1512.17062	0.54217
1508.31305	0.54314
1504.45547	0.54054
1500.59789	0.53944
1496.74031	0.54063
1492.88273	0.53519
1489.02516	0.52852
1485.16758	0.53206
1481.31000	0.53623
1477.45242	0.54031
1473.59484	0.54041
1469.73727	0.53070
1465.87969	0.52743
1462.02211	0.52963
1458.16453	0.52773
1454.30695	0.52553
1450.44937	0.52711
1446.59180	0.52892
1442.73422	0.53283
1438.87664	0.53767
1435.01906	0.53939
1431.16148	0.53820
1427.30391	0.54064
1423.44633	0.54568
1419.58875	0.54130
1415.73117	0.53026
1411.87359	0.52834
1408.01602	0.53122
1404.15844	0.53180
1400.30086	0.52603
1396.44328	0.52495
1392.58570	0.53392
1388.72812	0.53842
1384.87055	0.53413
1381.01297	0.52983
1377.15539	0.53489
1373.29781	0.53752
1369.44023	0.52859
1365.58266	0.52491
1361.72508	0.52895
1357.86750	0.53152
1354.00992	0.53142
1350.15234	0.53270
1346.29477	0.53347
1342.43719	0.52685
1338.57961	0.52098
1334.72203	0.52588
1330.86445	0.52922
1327.00687	0.52986
1323.14930	0.53333
1319.29172	0.53033
1315.43414	0.52378
1311.57656	0.52793
1307.71898	0.53103
1303.86141	0.52918
1300.00383	0.53269
1296.14625	0.53736
1292.28867	0.53934
1288.43109	0.53673
1284.57352	0.53186
1280.71594	0.53184
1276.85836	0.53680
1273.00078	0.54882
1269.14320	0.55201
1265.28562	0.53637
1261.42805	0.53251
1257.57047	0.54132
1253.71289	0.53538
1249.85531	0.52533
1245.99773	0.52706
1242.14016	0.53113
1238.28258	0.53242
1234.42500	0.53346
1230.56742	0.53311
1226.70984	0.53614
1222.85227	0.54085
1218.99469	0.54291
1215.13711	0.54198
1211.27953	0.52822
1207.42195	0.52047
1203.56437	0.53391
1199.70680	0.53887
1195.84922	0.53199
1191.99164	0.53333
1188.13406	0.52696
1184.27648	0.51101
1180.41891	0.52174
1176.56133	0.54139
1172.70375	0.53433
1168.84617	0.54099
1164.98859	0.55445
1161.13102	0.53940
1157.27344	0.54469
1153.41586	0.58126
1149.55828	0.58627
1145.70070	0.55504
1141.84312	0.53792
1137.98555	0.53020
1134.12797	0.52577
1130.27039	0.54409
1126.41281	0.53420
1122.55523	0.51534
1118.69766	0.52912
1114.84008	0.48657
1110.98250	0.44370
1107.12492	0.54391
1103.26734	0.58386
1099.40977	0.54537
1095.55219	0.63785
1091.69461	0.61540
1087.83703	0.34745
1083.97945	0.31019
1080.12187	0.50485
1076.26430	0.39700
1072.40672	-0.29606
1068.54914	-0.18741
1064.69156	0.77860
1060.83398	0.77860
1056.97641	-11.58698
1053.11883	3.99772
1049.26125	2.03624
1045.40367	0.66422
1041.54609	0.78233
1037.68852	0.28724
1033.83094	-0.06862
1029.97336	0.30771
1026.11578	0.48394
1022.25820	0.00400
1018.40062	0.57275
1014.54305	1.60517
1010.68547	0.60531
1006.82789	0.60531
1002.97031	-8.76145
999.11273	0.09043
995.25516	0.09043
991.39758	0.09043
987.54000	2.57503
983.68242	0.80799
979.82484	-0.43822
975.96727	-0.43822
972.10969	-0.57517
968.25211	-0.57517
964.39453	-0.57517
960.53695	-0.57517
956.67937	1.06118
952.82180	-0.01265
948.96422	-0.14508
945.10664	0.54468
941.24906	0.48461
937.39148	0.48461
933.53391	0.48461
929.67633	0.79945
925.81875	0.49455
921.96117	0.34714
918.10359	1.19890
914.24602	2.28426
910.38844	8.86906
906.53086	8.86906
902.67328	7.37369
898.81570	3.56622
894.95812	1.74888
891.10055	0.47052
887.24297	-1.73106
883.38539	-0.48024
879.52781	1.18448
875.67023	0.61097
871.81266	0.23918
867.95508	1.72322
864.09750	1.72322
860.23992	1.72322
856.38234	6.72486
852.52477	0.82711
848.66719	0.73099
844.80961	0.30228
840.95203	-0.71530
837.09445	-0.28639
833.23687	0.50564
829.37930	2.30995
825.52172	2.36843
821.66414	0.26282
817.80656	0.20698
813.94898	1.45873
810.09141	0.63954
806.23383	-2.56907
802.37625	-2.82843
798.51867	-0.19450
794.66109	0.31972
790.80352	0.11524
786.94594	0.74234
783.08836	0.47374
779.23078	-0.10712
775.37320	-0.10712
771.51562	-0.10712
767.65805	-0.10712
763.80047	2.52998
759.94289	0.17134
756.08531	-0.40306
752.22773	-0.40306
748.37016	-0.82528
744.51258	-0.02225
740.65500	0.53514
736.79742	1.13615
732.93984	1.13615
729.08227	1.13615
725.22469	0.49898
721.36711	0.48314
717.50953	0.78291
713.65195	0.46953
709.79437	-0.28814
705.93680	-1.73123
702.07922	-1.73123
698.22164	-1.73123
694.36406	-0.05753
690.50648	0.30170
686.64891	0.58105
682.79133	0.78300
678.93375	1.07683
675.07617	1.27281
671.21859	0.94515
667.36102	1.13843
663.50344	1.13843
659.64586	1.13843
655.78828	1.13843
651.93070	-1.18197
648.07312	0.37000
644.21555	0.58179
640.35797	0.34404
636.50039	-0.91094
632.64281	-0.91094
628.78523	-0.91094
624.92766	1.34094
621.07008	3.29128
617.21250	5.04736
613.35492	3.60286
609.49734	3.60286
605.63977	3.60286
601.78219	-1.10130
597.92461	-0.14586
594.06703	-0.42285
590.20945	-0.22846
586.35187	0.10650
582.49430	-0.01877
578.63672	-0.35391
574.77914	-0.25079
570.92156	0.06607
567.06398	1.13872
563.20641	1.13872
559.34883	1.13872
555.49125	0.22837
551.63367	0.07940
547.77609	-0.87520
543.91852	-0.87520
540.06094	-0.87520
536.20336	-0.87520
532.34578	0.28707
528.48820	0.69592
524.63062	2.75435
520.77305	2.75435
516.91547	2.75435
513.05789	0.77941
509.20031	0.74769
505.34273	0.74769
501.48516	0.74769
497.62758	0.32676
493.77000	1.25938
489.91242	1.25938
486.05484	1.25938
482.19727	1.25938
478.33969	0.11432
474.48211	0.33864
470.62453	0.31714
466.76695	0.22962
462.90937	0.40488
459.05180	0.72154
455.19422	-0.41456
451.33664	-0.74212
447.47906	0.65553
443.62148	0.69998
439.76391	0.59687
435.90633	0.27749
432.04875	0.27879
428.19117	0.61254
424.33359	0.27962
420.47602	0.31751
416.61844	0.77759
412.76086	0.79355
408.90328	-0.58209
405.04570	-1.08809
401.18812	-0.75293
397.33055	-0.75293
393.47297	13.33743
389.61539	13.33743
385.75781	0.39547
381.90023	0.36407
378.04266	0.48458
374.18508	0.48458
370.32750	0.48458
366.46992	20.00044
362.61234	-0.08832
358.75477	-0.64523
354.89719	-0.67150
351.03961	5.36435
347.18203	0.21637
343.32445	0.79603
339.46687	0.04137
335.60930	0.04137
331.75172	0.04137
327.89414	0.04137
324.03656	-1.35971
320.17898	-1.19034
316.32141	-1.19034
312.46383	-1.19034
308.60625	0.38053
304.74867	-0.66514
300.89109	-0.66514
