14998.26375	-0.16877
14994.40617	-0.14128
14990.54859	-0.17174
14986.69102	-0.16729
14982.83344	-0.05067
14978.97586	0.12287
14975.11828	0.11290
14971.26070	0.05749
14967.40312	0.14124
14963.54555	0.25935
14959.68797	0.07740
14955.83039	-0.07053
14951.97281	0.00334
14948.11523	0.17151
14944.25766	-0.06517
14940.40008	-0.09996
14936.54250	0.01576
14932.68492	0.01188
14928.82734	-0.05385
14924.96977	-0.22901
14921.11219	-0.26293
14917.25461	-0.17766
14913.39703	-0.10498
14909.53945	0.00187
14905.68187	0.04224
14901.82430	0.05821
14897.96672	0.16476
14894.10914	0.25157
14890.25156	0.28625
14886.39398	0.33421
14882.53641	0.19420
14878.67883	0.09741
14874.82125	0.09856
14870.96367	0.01527
14867.10609	0.03089
14863.24852	0.13653
14859.39094	0.02427
14855.53336	-0.03833
14851.67578	0.09071
14847.81820	0.11709
14843.96062	0.20956
14840.10305	0.22855
14836.24547	0.04586
14832.38789	0.04148
14828.53031	0.06484
14824.67273	0.01819
14820.81516	0.12109
14816.95758	0.12176
14813.10000	0.08510
14809.24242	0.06981
14805.38484	0.02599
14801.52727	0.12373
14797.66969	0.19231
14793.81211	-0.00580
14789.95453	-0.14643
14786.09695	-0.01134
14782.23937	0.10228
14778.38180	0.08543
14774.52422	0.03777
14770.66664	-0.07004
14766.80906	-0.10195
14762.95148	-0.00593
14759.09391	0.05028
14755.23633	0.00049
14751.37875	0.04986
14747.52117	0.18322
14743.66359	0.00907
14739.80602	-0.05200
14735.94844	-0.08936
14732.09086	-0.00753
14728.23328	-0.00027
14724.37570	0.12659
14720.51812	-0.02539
14716.66055	-0.06723
14712.80297	0.04309
14708.94539	0.12851
14705.08781	0.19142
14701.23023	0.17520
14697.37266	0.11191
14693.51508	0.09131
14689.65750	0.03404
14685.79992	0.02411
14681.94234	0.08842
14678.08477	0.09950
14674.22719	0.06302
14670.36961	-0.02863
14666.51203	-0.02919
14662.65445	0.05013
14658.79687	0.00148
14654.93930	-0.09743
14651.08172	0.02661
14647.22414	0.21009
14643.36656	0.06533
14639.50898	-0.02306
14635.65141	0.11579
14631.79383	0.05282
14627.93625	-0.06893
14624.07867	-0.09768
14620.22109	-0.14540
14616.36352	-0.14847
14612.50594	-0.10653
14608.64836	0.03157
14604.79078	0.07386
14600.93320	-0.11320
14597.07562	-0.12221
14593.21805	-0.03719
14589.36047	0.03596
14585.50289	0.12045
14581.64531	0.15032
14577.78773	0.14058
14573.93016	0.15861
14570.07258	0.14082
14566.21500	0.12833
14562.35742	0.11457
14558.49984	0.05687
14554.64227	0.02088
14550.78469	-0.03714
14546.92711	-0.05173
14543.06953	0.06198
14539.21195	0.09729
14535.35437	0.02213
14531.49680	-0.00542
14527.63922	0.03335
14523.78164	0.08553
14519.92406	0.01878
14516.06648	-0.00293
14512.20891	0.00273
14508.35133	0.00046
14504.49375	-0.01994
14500.63617	-0.04513
14496.77859	-0.08768
14492.92102	-0.18024
14489.06344	-0.12428
14485.20586	-0.01897
14481.34828	-0.04584
14477.49070	-0.04994
14473.63312	0.01568
14469.77555	0.03545
14465.91797	-0.02169
14462.06039	-0.07507
14458.20281	-0.04307
14454.34523	-0.01124
14450.48766	0.01553
14446.63008	0.03995
14442.77250	0.05994
14438.91492	0.02537
14435.05734	-0.02504
14431.19977	-0.02316
14427.34219	0.02946
14423.48461	0.09473
14419.62703	0.13199
14415.76945	0.11681
14411.91187	0.05547
14408.05430	-0.04254
14404.19672	-0.07662
14400.33914	-0.00461
14396.48156	0.05008
14392.62398	0.04647
14388.76641	0.07382
14384.90883	0.10407
14381.05125	0.11203
14377.19367	0.16398
14373.33609	0.13863
14369.47852	0.04978
14365.62094	0.07458
14361.76336	0.05667
14357.90578	-0.03542
14354.04820	-0.07394
14350.19062	-0.01101
14346.33305	0.01250
14342.47547	-0.06936
14338.61789	-0.07789
14334.76031	-0.05521
14330.90273	-0.09345
14327.04516	-0.08119
14323.18758	-0.04523
14319.33000	0.00396
14315.47242	0.03874
14311.61484	0.04801
14307.75727	0.01585
14303.89969	-0.00171
14300.04211	0.03483
14296.18453	0.03648
14292.32695	-0.01295
14288.46937	0.00277
14284.61180	0.04210
14280.75422	-0.01597
14276.89664	0.02556
14273.03906	0.02768
14269.18148	-0.11868
14265.32391	0.00414
14261.46633	0.10949
14257.60875	0.05460
14253.75117	0.05047
14249.89359	0.05761
14246.03602	0.04216
14242.17844	0.04266
14238.32086	0.07182
14234.46328	0.07710
14230.60570	0.04328
14226.74812	-0.00302
14222.89055	-0.01924
14219.03297	0.01483
14215.17539	0.09015
14211.31781	0.15664
14207.46023	0.13288
14203.60266	-0.00235
14199.74508	0.03695
14195.88750	0.10842
14192.02992	0.02639
14188.17234	-0.03121
14184.31477	-0.00133
14180.45719	0.01296
14176.59961	0.01448
14172.74203	0.03099
14168.88445	0.06551
14165.02687	0.07783
14161.16930	0.00881
14157.31172	-0.00868
14153.45414	0.06609
14149.59656	0.06262
14145.73898	0.00245
14141.88141	-0.01747
14138.02383	0.02815
14134.16625	0.06689
14130.30867	0.04045
14126.45109	0.04964
14122.59352	0.06175
14118.73594	-0.01596
14114.87836	-0.01889
14111.02078	0.08008
14107.16320	0.08671
14103.30562	0.00609
14099.44805	0.00646
14095.59047	0.03697
14091.73289	0.00446
14087.87531	0.01869
14084.01773	0.05904
14080.16016	0.01408
14076.30258	-0.01417
14072.44500	0.06239
14068.58742	0.10420
14064.72984	0.06722
14060.87227	0.03972
14057.01469	-0.01672
14053.15711	-0.06646
14049.29953	-0.02286
14045.44195	0.02389
14041.58437	0.05013
14037.72680	0.08198
14033.86922	0.11453
14030.01164	0.15193
14026.15406	0.11114
14022.29648	-0.06961
14018.43891	-0.06521
14014.58133	-0.02151
14010.72375	-0.01919
14006.86617	0.04309
14003.00859	-0.00532
13999.15102	0.05028
13995.29344	-0.00103
13991.43586	0.02237
13987.57828	0.10285
13983.72070	0.09471
13979.86312	0.04839
13976.00555	0.05826
13972.14797	0.11438
13968.29039	0.11170
13964.43281	0.06039
13960.57523	0.06848
13956.71766	0.09833
13952.86008	0.08322
13949.00250	0.01195
13945.14492	-0.03009
13941.28734	0.01339
13937.42977	0.06786
13933.57219	0.08075
13929.71461	0.09284
13925.85703	0.14136
13921.99945	0.12681
13918.14187	0.01316
13914.28430	-0.04784
13910.42672	-0.00501
13906.56914	0.03566
13902.71156	0.04617
13898.85398	0.05016
13894.99641	0.03890
13891.13883	0.00402
13887.28125	0.06201
13883.42367	0.10942
13879.56609	0.06238
13875.70852	0.03496
13871.85094	0.01881
13867.99336	-0.00873
13864.13578	-0.00494
13860.27820	0.02035
13856.42062	0.02893
13852.56305	0.02978
13848.70547	0.04765
13844.84789	0.06522
13840.99031	0.04827
13837.13273	0.00551
13833.27516	-0.00865
13829.41758	0.02749
13825.56000	0.07722
13821.70242	0.07540
13817.84484	0.03389
13813.98727	0.00216
13810.12969	0.02852
13806.27211	0.06059
13802.41453	-0.01025
13798.55695	-0.06394
13794.69937	-0.04469
13790.84180	0.02987
13786.98422	-0.00481
13783.12664	-0.00051
13779.26906	0.04532
13775.41148	0.05595
13771.55391	0.05940
13767.69633	0.05411
13763.83875	0.04558
13759.98117	0.05707
13756.12359	0.08926
13752.26602	0.07852
13748.40844	0.03916
13744.55086	0.06494
13740.69328	0.08249
13736.83570	0.05090
13732.97812	0.05413
13729.12055	0.07278
13725.26297	0.04365
13721.40539	0.00628
13717.54781	0.04387
13713.69023	0.10976
13709.83266	0.07112
13705.97508	0.02842
13702.11750	0.05165
13698.25992	0.03233
13694.40234	0.02467
13690.54477	0.04529
13686.68719	0.02766
13682.82961	0.03625
13678.97203	0.06146
13675.11445	0.09620
13671.25687	0.12765
13667.39930	0.07885
13663.54172	0.02385
13659.68414	0.01097
13655.82656	0.00558
13651.96898	0.02954
13648.11141	0.04424
13644.25383	0.01072
13640.39625	-0.01116
13636.53867	0.01681
13632.68109	0.05038
13628.82352	0.04019
13624.96594	0.03178
13621.10836	0.02576
13617.25078	-0.00381
13613.39320	-0.01005
13609.53562	-0.02011
13605.67805	-0.02225
13601.82047	0.01600
13597.96289	0.03641
13594.10531	0.01283
13590.24773	-0.00971
13586.39016	-0.01994
13582.53258	-0.01638
13578.67500	-0.00269
13574.81742	-0.00427
13570.95984	0.00737
13567.10227	0.03697
13563.24469	0.05788
13559.38711	-0.01107
13555.52953	-0.07560
13551.67195	-0.01327
13547.81437	0.09635
13543.95680	0.07134
13540.09922	-0.01604
13536.24164	-0.06081
13532.38406	-0.01383
13528.52648	0.04561
13524.66891	0.04901
13520.81133	0.05017
13516.95375	0.03170
13513.09617	0.00813
13509.23859	0.01856
13505.38102	0.00907
13501.52344	0.00204
13497.66586	-0.01459
13493.80828	-0.00647
13489.95070	0.03240
13486.09312	0.05537
13482.23555	0.05541
13478.37797	0.07184
13474.52039	0.09660
13470.66281	0.06637
13466.80523	0.01276
13462.94766	0.00675
13459.09008	0.01199
13455.23250	0.00617
13451.37492	0.00168
13447.51734	0.01197
13443.65977	-0.00012
13439.80219	-0.03043
13435.94461	0.00746
13432.08703	0.07782
13428.22945	0.07873
13424.37187	0.00968
13420.51430	-0.00011
13416.65672	0.03227
13412.79914	0.05239
13408.94156	0.03546
13405.08398	0.03382
13401.22641	0.07371
13397.36883	0.04958
13393.51125	-0.00488
13389.65367	-0.01025
13385.79609	0.01268
13381.93852	0.02661
13378.08094	0.00777
13374.22336	-0.00837
13370.36578	0.00928
13366.50820	0.02596
13362.65062	0.02383
13358.79305	0.02189
13354.93547	0.01103
13351.07789	-0.01185
13347.22031	-0.02657
13343.36273	-0.02590
13339.50516	0.00050
13335.64758	0.02792
13331.79000	0.03570
13327.93242	0.05001
13324.07484	0.02570
13320.21727	-0.02009
13316.35969	-0.01329
13312.50211	0.01655
13308.64453	0.01052
13304.78695	0.00942
13300.92937	0.02023
13297.07180	0.02682
13293.21422	0.04286
13289.35664	0.05084
13285.49906	0.04826
13281.64148	0.03908
13277.78391	0.04705
13273.92633	0.06366
13270.06875	0.02864
13266.21117	-0.00692
13262.35359	-0.00290
13258.49602	0.03060
13254.63844	0.05847
13250.78086	0.02876
13246.92328	0.00717
13243.06570	0.03671
13239.20812	0.02284
13235.35055	-0.00568
13231.49297	0.03880
13227.63539	0.08994
13223.77781	0.05661
13219.92023	0.03574
13216.06266	0.06512
13212.20508	0.05994
13208.34750	0.04515
13204.48992	0.06298
13200.63234	0.05857
13196.77477	0.05050
13192.91719	0.04528
13189.05961	0.00122
13185.20203	-0.00497
13181.34445	0.03760
13177.48687	0.01445
13173.62930	-0.02832
13169.77172	-0.00110
13165.91414	0.03901
13162.05656	0.01463
13158.19898	-0.02938
13154.34141	-0.02111
13150.48383	0.03151
13146.62625	0.05631
13142.76867	0.02426
13138.91109	0.01036
13135.05352	0.03162
13131.19594	0.02149
13127.33836	-0.00418
13123.48078	0.01394
13119.62320	0.04482
13115.76562	0.04001
13111.90805	0.01951
13108.05047	0.01547
13104.19289	0.01998
13100.33531	0.02500
13096.47773	0.02137
13092.62016	0.00517
13088.76258	-0.00812
13084.90500	-0.00013
13081.04742	0.00899
13077.18984	0.01411
13073.33227	0.03921
13069.47469	0.07717
13065.61711	0.09522
13061.75953	0.06012
13057.90195	0.01238
13054.04437	0.01220
13050.18680	0.03439
13046.32922	0.03563
13042.47164	0.02062
13038.61406	0.03729
13034.75648	0.06833
13030.89891	0.04717
13027.04133	-0.00223
13023.18375	-0.01184
13019.32617	0.03794
13015.46859	0.06552
13011.61102	0.02542
13007.75344	-0.00529
13003.89586	-0.00123
13000.03828	0.02815
12996.18070	0.03253
12992.32312	-0.00283
12988.46555	-0.00469
12984.60797	0.02595
12980.75039	0.05330
12976.89281	0.07099
12973.03523	0.07374
12969.17766	0.06678
12965.32008	0.04693
12961.46250	0.02052
12957.60492	0.00457
12953.74734	-0.01677
12949.88977	-0.03198
12946.03219	-0.00580
12942.17461	0.04547
12938.31703	0.05521
12934.45945	0.03603
12930.60187	0.00991
12926.74430	0.00204
12922.88672	-0.00586
12919.02914	-0.01105
12915.17156	0.02052
12911.31398	0.03071
12907.45641	0.01862
12903.59883	0.02869
12899.74125	0.03222
12895.88367	0.02811
12892.02609	0.02620
12888.16852	0.02527
12884.31094	0.03338
12880.45336	0.02811
12876.59578	-0.00309
12872.73820	-0.03140
12868.88062	-0.01324
12865.02305	0.02628
12861.16547	0.01923
12857.30789	0.00113
12853.45031	0.04420
12849.59273	0.07472
12845.73516	0.06536
12841.87758	0.05118
12838.02000	0.01591
12834.16242	0.00212
12830.30484	0.02327
12826.44727	0.01155
12822.58969	-0.00486
12818.73211	0.01245
12814.87453	0.02498
12811.01695	0.03557
12807.15937	0.03968
12803.30180	0.01479
12799.44422	0.01199
12795.58664	0.01295
12791.72906	-0.01530
12787.87148	0.00237
12784.01391	0.03074
12780.15633	0.03239
12776.29875	0.02579
12772.44117	-0.00485
12768.58359	-0.01115
12764.72602	-0.00546
12760.86844	0.01180
12757.01086	0.01669
12753.15328	0.00195
12749.29570	-0.01033
12745.43812	0.00066
12741.58055	0.01556
12737.72297	0.01628
12733.86539	0.04133
12730.00781	0.03986
12726.15023	-0.00565
12722.29266	-0.02802
12718.43508	-0.01683
12714.57750	0.01087
12710.71992	0.03284
12706.86234	0.05178
12703.00477	0.03674
12699.14719	-0.00333
12695.28961	0.02521
12691.43203	0.01937
12687.57445	-0.03218
12683.71687	0.01355
12679.85930	0.04868
12676.00172	0.03395
12672.14414	0.00731
12668.28656	0.01437
12664.42898	0.04302
12660.57141	0.04731
12656.71383	0.02911
12652.85625	0.02722
12648.99867	0.01387
12645.14109	0.00015
12641.28352	0.02508
12637.42594	0.03466
12633.56836	0.00866
12629.71078	0.00516
12625.85320	0.04539
12621.99562	0.07970
12618.13805	0.07442
12614.28047	0.04634
12610.42289	0.02225
12606.56531	0.01317
12602.70773	0.01620
12598.85016	0.02617
12594.99258	0.03061
12591.13500	0.02605
12587.27742	0.01433
12583.41984	0.00153
12579.56227	0.00069
12575.70469	0.01064
12571.84711	0.02188
12567.98953	0.01112
12564.13195	0.00234
12560.27437	0.00905
12556.41680	-0.00838
12552.55922	-0.00851
12548.70164	0.02732
12544.84406	0.03440
12540.98648	0.02002
12537.12891	0.00978
12533.27133	-0.00441
12529.41375	-0.01435
12525.55617	-0.00615
12521.69859	0.01057
12517.84102	0.01945
12513.98344	0.02349
12510.12586	0.02252
12506.26828	0.01215
12502.41070	0.01421
12498.55312	0.02817
12494.69555	0.00254
12490.83797	-0.02991
12486.98039	-0.01758
12483.12281	-0.00148
12479.26523	0.01100
12475.40766	0.02714
12471.55008	0.02653
12467.69250	0.02207
12463.83492	0.01133
12459.97734	-0.01665
12456.11977	-0.01922
12452.26219	0.01829
12448.40461	0.02185
12444.54703	-0.00546
12440.68945	0.01216
12436.83187	0.02163
12432.97430	0.00283
12429.11672	0.01638
12425.25914	0.03174
12421.40156	0.02077
12417.54398	0.02149
12413.68641	0.02696
12409.82883	0.01760
12405.97125	-0.00088
12402.11367	-0.00778
12398.25609	0.01092
12394.39852	0.03193
12390.54094	0.03575
12386.68336	0.02862
12382.82578	0.02400
12378.96820	0.02558
12375.11062	0.02102
12371.25305	0.01689
12367.39547	0.01438
12363.53789	0.00653
12359.68031	0.01956
12355.82273	0.03849
12351.96516	0.01774
12348.10758	-0.00539
12344.25000	0.01831
12340.39242	0.03304
12336.53484	0.02557
12332.67727	0.04922
12328.81969	0.05755
12324.96211	0.01672
12321.10453	0.00069
12317.24695	0.02729
12313.38937	0.04210
12309.53180	0.03666
12305.67422	0.04286
12301.81664	0.04022
12297.95906	0.01430
12294.10148	0.00311
12290.24391	-0.00052
12286.38633	-0.00631
12282.52875	0.00106
12278.67117	-0.00396
12274.81359	0.00380
12270.95602	0.04844
12267.09844	0.05696
12263.24086	0.02856
12259.38328	0.02309
12255.52570	0.00965
12251.66812	-0.01166
12247.81055	-0.00068
12243.95297	0.01619
12240.09539	0.02829
12236.23781	0.02903
12232.38023	-0.00126
12228.52266	-0.00503
12224.66508	0.00915
12220.80750	0.01415
12216.94992	0.02462
12213.09234	0.00308
12209.23477	-0.01769
12205.37719	0.01188
12201.51961	0.03499
12197.66203	0.01843
12193.80445	0.01478
12189.94687	0.04418
12186.08930	0.03908
12182.23172	0.01801
12178.37414	0.02359
12174.51656	0.02100
12170.65898	0.00836
12166.80141	-0.00323
12162.94383	-0.00147
12159.08625	0.01489
12155.22867	0.02262
12151.37109	0.02630
12147.51352	0.01857
12143.65594	0.01644
12139.79836	0.02619
12135.94078	0.02311
12132.08320	0.03418
12128.22562	0.05217
12124.36805	0.03379
12120.51047	0.00215
12116.65289	-0.00331
12112.79531	0.01196
12108.93773	0.02430
12105.08016	0.02190
12101.22258	0.01155
12097.36500	0.01579
12093.50742	0.03112
12089.64984	0.03216
12085.79227	0.03124
12081.93469	0.02832
12078.07711	0.00580
12074.21953	-0.00635
12070.36195	0.00019
12066.50437	0.01425
12062.64680	0.01859
12058.78922	-0.00174
12054.93164	-0.01033
12051.07406	0.00836
12047.21648	0.02198
12043.35891	0.01545
12039.50133	0.01201
12035.64375	0.00606
12031.78617	-0.00485
12027.92859	-0.00670
12024.07102	-0.00634
12020.21344	-0.00305
12016.35586	0.00437
12012.49828	0.02114
12008.64070	0.04588
12004.78312	0.04630
12000.92555	0.02862
11997.06797	0.01187
11993.21039	-0.00173
11989.35281	-0.00393
11985.49523	-0.00188
11981.63766	0.00275
11977.78008	0.00115
11973.92250	-0.01786
11970.06492	0.00270
11966.20734	0.04400
11962.34977	0.02339
11958.49219	-0.00942
11954.63461	-0.00213
11950.77703	0.01062
11946.91945	0.01716
11943.06187	0.02808
11939.20430	-0.00255
11935.34672	-0.00910
11931.48914	0.03380
11927.63156	0.01515
11923.77398	-0.00556
11919.91641	0.00658
11916.05883	0.00830
11912.20125	0.00436
11908.34367	0.00721
11904.48609	0.01175
11900.62852	0.01748
11896.77094	0.03139
11892.91336	0.02968
11889.05578	0.01158
11885.19820	0.01024
11881.34062	0.00509
11877.48305	-0.01081
11873.62547	0.00318
11869.76789	0.02116
11865.91031	0.01594
11862.05273	0.01840
11858.19516	0.00929
11854.33758	-0.00747
11850.48000	-0.00042
11846.62242	-0.00202
11842.76484	-0.01004
11838.90727	-0.00462
11835.04969	0.00670
11831.19211	0.00418
11827.33453	-0.00933
11823.47695	-0.00265
11819.61937	0.00481
11815.76180	0.00537
11811.90422	0.00825
11808.04664	0.01272
11804.18906	0.01888
11800.33148	0.02125
11796.47391	0.00861
11792.61633	-0.00759
11788.75875	-0.01136
11784.90117	-0.00949
11781.04359	-0.00386
11777.18602	0.00739
11773.32844	0.02332
11769.47086	0.03505
11765.61328	0.03148
11761.75570	0.02123
11757.89812	0.01947
11754.04055	0.00918
11750.18297	-0.00402
11746.32539	0.00464
11742.46781	0.01645
11738.61023	0.03049
11734.75266	0.03264
11730.89508	0.00496
11727.03750	-0.00593
11723.17992	-0.00001
11719.32234	0.00453
11715.46477	0.02097
11711.60719	0.03590
11707.74961	0.02979
11703.89203	0.01351
11700.03445	0.00040
11696.17687	-0.00967
11692.31930	-0.00202
11688.46172	0.01421
11684.60414	0.01006
11680.74656	0.01501
11676.88898	0.02913
11673.03141	0.02210
11669.17383	0.01613
11665.31625	0.01644
11661.45867	0.01805
11657.60109	0.02500
11653.74352	0.03002
11649.88594	0.03264
11646.02836	0.02642
11642.17078	0.01601
11638.31320	0.01124
11634.45562	0.01106
11630.59805	0.01483
11626.74047	0.01801
11622.88289	0.01977
11619.02531	0.01562
11615.16773	0.01181
11611.31016	0.01214
11607.45258	0.01629
11603.59500	0.01820
11599.73742	0.01174
11595.87984	0.00452
11592.02227	0.00305
11588.16469	0.00503
11584.30711	0.00689
11580.44953	0.00584
11576.59195	0.00427
11572.73437	0.00810
11568.87680	0.02329
11565.01922	0.02028
11561.16164	0.01630
11557.30406	0.01287
11553.44648	0.00221
11549.58891	0.00378
11545.73133	0.00674
11541.87375	-0.00263
11538.01617	-0.00542
11534.15859	0.00319
11530.30102	0.01113
11526.44344	0.01129
11522.58586	0.00079
11518.72828	-0.00146
11514.87070	0.00576
11511.01312	0.01402
11507.15555	0.01946
11503.29797	0.00839
11499.44039	0.00051
11495.58281	0.00722
11491.72523	0.00599
11487.86766	0.00367
11484.01008	0.00610
11480.15250	0.00756
11476.29492	0.01022
11472.43734	0.01130
11468.57977	0.00472
11464.72219	0.00594
11460.86461	0.01062
11457.00703	0.01144
11453.14945	0.02588
11449.29187	0.02150
11445.43430	0.00844
11441.57672	0.01474
11437.71914	0.00733
11433.86156	0.00704
11430.00398	0.01973
11426.14641	0.01226
11422.28883	0.01185
11418.43125	0.02121
11414.57367	0.01884
11410.71609	0.01304
11406.85852	0.01221
11403.00094	0.00638
11399.14336	-0.00235
11395.28578	0.00547
11391.42820	0.00964
11387.57062	0.00887
11383.71305	0.01787
11379.85547	0.02371
11375.99789	0.02151
11372.14031	0.01460
11368.28273	0.00890
11364.42516	0.00505
11360.56758	0.00593
11356.71000	0.01391
11352.85242	0.01766
11348.99484	0.00994
11345.13727	-0.00191
11341.27969	-0.00356
11337.42211	0.00509
11333.56453	0.01322
11329.70695	0.01872
11325.84937	0.01412
11321.99180	0.00722
11318.13422	0.01181
11314.27664	0.01460
11310.41906	0.00646
11306.56148	-0.00173
11302.70391	0.01039
11298.84633	0.02341
11294.98875	0.00850
11291.13117	-0.00115
11287.27359	0.00864
11283.41602	0.01361
11279.55844	0.01328
11275.70086	0.00283
11271.84328	-0.00179
11267.98570	0.00992
11264.12812	0.02254
11260.27055	0.02437
11256.41297	0.02084
11252.55539	0.01374
11248.69781	0.00201
11244.84023	-0.00135
11240.98266	0.01008
11237.12508	0.02286
11233.26750	0.02096
11229.40992	0.01611
11225.55234	0.00963
11221.69477	-0.00195
11217.83719	0.00365
11213.97961	0.01447
11210.12203	0.01900
11206.26445	0.01829
11202.40687	0.00631
11198.54930	-0.00385
11194.69172	-0.00500
11190.83414	0.00382
11186.97656	0.01730
11183.11898	0.01527
11179.26141	-0.00122
11175.40383	-0.00654
11171.54625	0.00067
11167.68867	0.00714
11163.83109	0.01096
11159.97352	0.00365
11156.11594	-0.00089
11152.25836	0.01200
11148.40078	0.01835
11144.54320	0.01334
11140.68562	0.01330
11136.82805	0.01209
11132.97047	0.00679
11129.11289	0.00857
11125.25531	0.01651
11121.39773	0.01107
11117.54016	-0.00336
11113.68258	0.00252
11109.82500	0.01924
11105.96742	0.01737
11102.10984	0.00722
11098.25227	0.00780
11094.39469	0.00417
11090.53711	-0.00105
11086.67953	0.00664
11082.82195	0.00800
11078.96437	0.00520
11075.10680	0.01035
11071.24922	0.01025
11067.39164	0.00467
11063.53406	0.00345
11059.67648	0.00492
11055.81891	0.00266
11051.96133	-0.00073
11048.10375	0.00429
11044.24617	0.01089
11040.38859	0.00700
11036.53102	0.00630
11032.67344	0.00964
11028.81586	0.00512
11024.95828	0.00143
11021.10070	0.00615
11017.24312	0.01211
11013.38555	0.01254
11009.52797	0.00961
11005.67039	0.00757
11001.81281	0.00351
10997.95523	0.00186
10994.09766	0.00642
10990.24008	0.01296
10986.38250	0.01960
10982.52492	0.01937
10978.66734	0.01520
10974.80977	0.01365
10970.95219	0.00841
10967.09461	0.00522
10963.23703	0.01098
10959.37945	0.02057
10955.52187	0.02208
10951.66430	0.01571
10947.80672	0.01447
10943.94914	0.01349
10940.09156	0.01482
10936.23398	0.01428
10932.37641	0.00762
10928.51883	0.01321
10924.66125	0.01966
10920.80367	0.01339
10916.94609	0.00661
10913.08852	0.00516
10909.23094	0.00896
10905.37336	0.01249
10901.51578	0.01466
10897.65820	0.01301
10893.80062	0.00730
10889.94305	0.01389
10886.08547	0.01991
10882.22789	0.00806
10878.37031	0.00329
10874.51273	0.00637
10870.65516	0.00150
10866.79758	0.00270
10862.94000	0.01305
10859.08242	0.01640
10855.22484	0.00952
10851.36727	0.00525
10847.50969	0.00768
10843.65211	0.00813
10839.79453	0.00823
10835.93695	0.01306
10832.07937	0.01611
10828.22180	0.01168
10824.36422	0.00845
10820.50664	0.01066
10816.64906	0.01132
10812.79148	0.01086
10808.93391	0.00903
10805.07633	0.00578
10801.21875	0.00585
10797.36117	0.00744
10793.50359	0.00764
10789.64602	0.00439
10785.78844	0.00278
10781.93086	0.00376
10778.07328	-0.00170
10774.21570	-0.00474
10770.35812	0.00303
10766.50055	0.00955
10762.64297	0.01221
10758.78539	0.01191
10754.92781	0.00711
10751.07023	0.00530
10747.21266	0.01039
10743.35508	0.01509
10739.49750	0.01374
10735.63992	0.00484
10731.78234	0.00431
10727.92477	0.01325
10724.06719	0.01106
10720.20961	0.00784
10716.35203	0.01145
10712.49445	0.01021
10708.63687	0.00893
10704.77930	0.00949
10700.92172	0.00529
10697.06414	-0.00152
10693.20656	-0.00370
10689.34898	0.00360
10685.49141	0.00820
10681.63383	0.00398
10677.77625	0.00677
10673.91867	0.01332
10670.06109	0.00983
10666.20352	0.00879
10662.34594	0.01324
10658.48836	0.00788
10654.63078	0.00008
10650.77320	0.00146
10646.91562	0.00743
10643.05805	0.00967
10639.20047	0.00767
10635.34289	0.00805
10631.48531	0.00955
10627.62773	0.00979
10623.77016	0.00490
10619.91258	-0.00167
10616.05500	-0.00046
10612.19742	-0.00115
10608.33984	-0.00147
10604.48227	0.00506
10600.62469	0.00908
10596.76711	0.00764
10592.90953	0.00062
10589.05195	0.00072
10585.19437	0.00731
10581.33680	0.00923
10577.47922	0.01302
10573.62164	0.00999
10569.76406	0.00108
10565.90648	0.00458
10562.04891	0.01105
10558.19133	0.00985
10554.33375	0.00865
10550.47617	0.01121
10546.61859	0.01270
10542.76102	0.00781
10538.90344	-0.00076
10535.04586	-0.00036
10531.18828	0.00892
10527.33070	0.01015
10523.47312	0.00523
10519.61555	0.01079
10515.75797	0.01995
10511.90039	0.01955
10508.04281	0.01718
10504.18523	0.01496
10500.32766	0.00918
10496.47008	0.00856
10492.61250	0.00738
10488.75492	0.00483
10484.89734	0.01153
10481.03977	0.01028
10477.18219	-0.00042
10473.32461	-0.00146
10469.46703	0.00112
10465.60945	0.00101
10461.75187	0.00561
10457.89430	0.01118
10454.03672	0.00553
10450.17914	-0.00065
10446.32156	0.00421
10442.46398	0.00749
10438.60641	0.00322
10434.74883	0.00050
10430.89125	0.00116
10427.03367	0.00406
10423.17609	0.00837
10419.31852	0.00799
10415.46094	0.00563
10411.60336	0.00699
10407.74578	0.00889
10403.88820	0.00686
10400.03062	0.00039
10396.17305	-0.00774
10392.31547	-0.00624
10388.45789	-0.00136
10384.60031	0.00115
10380.74273	0.00437
10376.88516	0.00665
10373.02758	0.00282
10369.17000	0.00046
10365.31242	0.00266
10361.45484	0.00054
10357.59727	0.00212
10353.73969	0.01009
10349.88211	0.01241
10346.02453	0.00906
10342.16695	0.00420
10338.30937	0.00277
10334.45180	0.00660
10330.59422	0.00427
10326.73664	0.00027
10322.87906	0.00128
10319.02148	0.00110
10315.16391	0.00469
10311.30633	0.00524
10307.44875	0.00128
10303.59117	0.00393
10299.73359	0.00602
10295.87602	0.00407
10292.01844	0.00364
10288.16086	0.00456
10284.30328	0.00544
10280.44570	0.00696
10276.58812	0.00857
10272.73055	0.00756
10268.87297	0.00494
10265.01539	0.00341
10261.15781	0.00266
10257.30023	0.00568
10253.44266	0.01052
10249.58508	0.00724
10245.72750	0.00076
10241.86992	0.00330
10238.01234	0.00915
10234.15477	0.01005
10230.29719	0.00736
10226.43961	0.00268
10222.58203	0.00182
10218.72445	0.00632
10214.86687	0.00679
10211.00930	0.00156
10207.15172	-0.00350
10203.29414	-0.00372
10199.43656	0.00145
10195.57898	0.00556
10191.72141	0.00577
10187.86383	0.00445
10184.00625	0.00348
10180.14867	0.00482
10176.29109	0.00227
10172.43352	-0.00174
10168.57594	0.00084
10164.71836	0.00230
10160.86078	0.00091
10157.00320	0.00139
10153.14562	0.00293
10149.28805	0.00325
10145.43047	0.00409
10141.57289	0.00747
10137.71531	0.00944
10133.85773	0.00998
10130.00016	0.00963
10126.14258	0.00640
10122.28500	0.00557
10118.42742	0.00755
10114.56984	0.00934
10110.71227	0.01199
10106.85469	0.01263
10102.99711	0.01098
10099.13953	0.01197
10095.28195	0.01363
10091.42437	0.01034
10087.56680	0.00762
10083.70922	0.00912
10079.85164	0.00986
10075.99406	0.01045
10072.13648	0.00997
10068.27891	0.00755
10064.42133	0.00502
10060.56375	0.00364
10056.70617	0.00601
10052.84859	0.00792
10048.99102	0.00908
10045.13344	0.01143
10041.27586	0.01030
10037.41828	0.01030
10033.56070	0.01313
10029.70312	0.01300
10025.84555	0.01361
10021.98797	0.01491
10018.13039	0.01317
10014.27281	0.01215
10010.41523	0.01153
10006.55766	0.01115
10002.70008	0.01163
9998.84250	0.01165
9994.98492	0.01488
9991.12734	0.01572
9987.26977	0.01125
9983.41219	0.01058
9979.55461	0.01490
9975.69703	0.01915
9971.83945	0.01787
9967.98187	0.01530
9964.12430	0.01652
9960.26672	0.01892
9956.40914	0.02227
9952.55156	0.02108
9948.69398	0.01848
9944.83641	0.02116
9940.97883	0.02228
9937.12125	0.02209
9933.26367	0.02444
9929.40609	0.02534
9925.54852	0.02333
9921.69094	0.02393
9917.83336	0.02651
9913.97578	0.02599
9910.11820	0.02773
9906.26062	0.03264
9902.40305	0.03481
9898.54547	0.03437
9894.68789	0.03064
9890.83031	0.02646
9886.97273	0.02790
9883.11516	0.03255
9879.25758	0.03539
9875.40000	0.03557
9871.54242	0.03351
9867.68484	0.03143
9863.82727	0.03164
9859.96969	0.03436
9856.11211	0.03853
9852.25453	0.04129
9848.39695	0.04248
9844.53937	0.04395
9840.68180	0.04459
9836.82422	0.04647
9832.96664	0.04927
9829.10906	0.04684
9825.25148	0.04314
9821.39391	0.04517
9817.53633	0.04677
9813.67875	0.04578
9809.82117	0.04945
9805.96359	0.05358
9802.10602	0.05368
9798.24844	0.05602
9794.39086	0.05867
9790.53328	0.05782
9786.67570	0.05511
9782.81812	0.05187
9778.96055	0.05204
9775.10297	0.05467
9771.24539	0.05709
9767.38781	0.06082
9763.53023	0.06389
9759.67266	0.06569
9755.81508	0.06933
9751.95750	0.07285
9748.09992	0.07174
9744.24234	0.07049
9740.38477	0.07261
9736.52719	0.07343
9732.66961	0.07562
9728.81203	0.08081
9724.95445	0.08244
9721.09687	0.08151
9717.23930	0.08231
9713.38172	0.08467
9709.52414	0.08657
9705.66656	0.08556
9701.80898	0.08617
9697.95141	0.09157
9694.09383	0.09453
9690.23625	0.09467
9686.37867	0.09566
9682.52109	0.09575
9678.66352	0.09737
9674.80594	0.10026
9670.94836	0.10068
9667.09078	0.10320
9663.23320	0.11075
9659.37562	0.11547
9655.51805	0.11428
9651.66047	0.11554
9647.80289	0.11812
9643.94531	0.11627
9640.08773	0.11724
9636.23016	0.12311
9632.37258	0.12717
9628.51500	0.12744
9624.65742	0.12672
9620.79984	0.13086
9616.94227	0.13785
9613.08469	0.13932
9609.22711	0.13922
9605.36953	0.14247
9601.51195	0.14475
9597.65437	0.14525
9593.79680	0.14539
9589.93922	0.14836
9586.08164	0.15537
9582.22406	0.15924
9578.36648	0.15953
9574.50891	0.15982
9570.65133	0.15958
9566.79375	0.16249
9562.93617	0.16769
9559.07859	0.16886
9555.22102	0.16967
9551.36344	0.17608
9547.50586	0.18146
9543.64828	0.18026
9539.79070	0.18081
9535.93312	0.18587
9532.07555	0.18797
9528.21797	0.18798
9524.36039	0.18883
9520.50281	0.19026
9516.64523	0.19585
9512.78766	0.20067
9508.93008	0.19939
9505.07250	0.20159
9501.21492	0.20666
9497.35734	0.20715
9493.49977	0.21150
9489.64219	0.21817
9485.78461	0.21530
9481.92703	0.21384
9478.06945	0.22378
9474.21187	0.23126
9470.35430	0.23104
9466.49672	0.23279
9462.63914	0.23510
9458.78156	0.23487
9454.92398	0.23803
9451.06641	0.24310
9447.20883	0.24575
9443.35125	0.24770
9439.49367	0.24695
9435.63609	0.24622
9431.77852	0.25174
9427.92094	0.25822
9424.06336	0.26124
9420.20578	0.26349
9416.34820	0.26721
9412.49062	0.27186
9408.63305	0.27445
9404.77547	0.27599
9400.91789	0.27709
9397.06031	0.27601
9393.20273	0.27579
9389.34516	0.27789
9385.48758	0.28054
9381.63000	0.28169
9377.77242	0.28166
9373.91484	0.28675
9370.05727	0.29350
9366.19969	0.29148
9362.34211	0.28850
9358.48453	0.29414
9354.62695	0.30024
9350.76937	0.29974
9346.91180	0.29704
9343.05422	0.29718
9339.19664	0.30002
9335.33906	0.30428
9331.48148	0.30818
9327.62391	0.31086
9323.76633	0.31299
9319.90875	0.31355
9316.05117	0.31499
9312.19359	0.31941
9308.33602	0.32183
9304.47844	0.32238
9300.62086	0.32456
9296.76328	0.32426
9292.90570	0.32121
9289.04812	0.32158
9285.19055	0.32593
9281.33297	0.33294
9277.47539	0.33914
9273.61781	0.33814
9269.76023	0.33468
9265.90266	0.33541
9262.04508	0.33623
9258.18750	0.33674
9254.32992	0.33975
9250.47234	0.34268
9246.61477	0.34470
9242.75719	0.34620
9238.89961	0.34593
9235.04203	0.34575
9231.18445	0.34898
9227.32687	0.35403
9223.46930	0.35640
9219.61172	0.35472
9215.75414	0.35301
9211.89656	0.35554
9208.03898	0.35785
9204.18141	0.35701
9200.32383	0.35839
9196.46625	0.36206
9192.60867	0.36389
9188.75109	0.36316
9184.89352	0.36420
9181.03594	0.36848
9177.17836	0.36961
9173.32078	0.36932
9169.46320	0.37168
9165.60562	0.37360
9161.74805	0.37511
9157.89047	0.37649
9154.03289	0.37687
9150.17531	0.37675
9146.31773	0.37635
9142.46016	0.37680
9138.60258	0.37876
9134.74500	0.38154
9130.88742	0.38341
9127.02984	0.38400
9123.17227	0.38512
9119.31469	0.38745
9115.45711	0.39087
9111.59953	0.39442
9107.74195	0.39544
9103.88437	0.39417
9100.02680	0.39419
9096.16922	0.39691
9092.31164	0.39849
9088.45406	0.39659
9084.59648	0.39759
9080.73891	0.40261
9076.88133	0.40477
9073.02375	0.40321
9069.16617	0.40092
9065.30859	0.40201
9061.45102	0.40583
9057.59344	0.40745
9053.73586	0.40881
9049.87828	0.41114
9046.02070	0.41052
9042.16312	0.40820
9038.30555	0.41009
9034.44797	0.41585
9030.59039	0.41823
9026.73281	0.41567
9022.87523	0.41458
9019.01766	0.41727
9015.16008	0.42009
9011.30250	0.42080
9007.44492	0.41983
9003.58734	0.42092
8999.72977	0.42356
8995.87219	0.42288
8992.01461	0.42229
8988.15703	0.42275
8984.29945	0.42248
8980.44187	0.42570
8976.58430	0.43035
8972.72672	0.43104
8968.86914	0.42986
8965.01156	0.43013
8961.15398	0.43064
8957.29641	0.43265
8953.43883	0.43588
8949.58125	0.43527
8945.72367	0.43492
8941.86609	0.43668
8938.00852	0.43634
8934.15094	0.43834
8930.29336	0.44320
8926.43578	0.44565
8922.57820	0.44503
8918.72062	0.44178
8914.86305	0.43981
8911.00547	0.44482
8907.14789	0.45068
8903.29031	0.44903
8899.43273	0.44570
8895.57516	0.44515
8891.71758	0.44443
8887.86000	0.44460
8884.00242	0.44758
8880.14484	0.45270
8876.28727	0.45518
8872.42969	0.45310
8868.57211	0.45263
8864.71453	0.45373
8860.85695	0.45365
8856.99937	0.45361
8853.14180	0.45353
8849.28422	0.45612
8845.42664	0.45931
8841.56906	0.45676
8837.71148	0.45336
8833.85391	0.45530
8829.99633	0.45898
8826.13875	0.46214
8822.28117	0.46466
8818.42359	0.46281
8814.56602	0.45948
8810.70844	0.46005
8806.85086	0.46271
8802.99328	0.46630
8799.13570	0.46802
8795.27812	0.46714
8791.42055	0.46786
8787.56297	0.46960
8783.70539	0.46973
8779.84781	0.46803
8775.99023	0.46783
8772.13266	0.47014
8768.27508	0.47205
8764.41750	0.47352
8760.55992	0.47304
8756.70234	0.47124
8752.84477	0.47173
8748.98719	0.47359
8745.12961	0.47397
8741.27203	0.47311
8737.41445	0.47593
8733.55687	0.47984
8729.69930	0.47836
8725.84172	0.47565
8721.98414	0.47426
8718.12656	0.47470
8714.26898	0.47840
8710.41141	0.48044
8706.55383	0.47953
8702.69625	0.47903
8698.83867	0.47994
8694.98109	0.48233
8691.12352	0.48332
8687.26594	0.48159
8683.40836	0.48285
8679.55078	0.48793
8675.69320	0.48923
8671.83562	0.48787
8667.97805	0.48870
8664.12047	0.48858
8660.26289	0.48699
8656.40531	0.48594
8652.54773	0.48635
8648.69016	0.48921
8644.83258	0.49249
8640.97500	0.49258
8637.11742	0.48903
8633.25984	0.48799
8629.40227	0.49136
8625.54469	0.49375
8621.68711	0.49355
8617.82953	0.49178
8613.97195	0.49146
8610.11437	0.49343
8606.25680	0.49434
8602.39922	0.49457
8598.54164	0.49558
8594.68406	0.49649
8590.82648	0.49635
8586.96891	0.49528
8583.11133	0.49413
8579.25375	0.49468
8575.39617	0.49680
8571.53859	0.49673
8567.68102	0.49577
8563.82344	0.49645
8559.96586	0.49556
8556.10828	0.49443
8552.25070	0.49650
8548.39312	0.49876
8544.53555	0.49904
8540.67797	0.49946
8536.82039	0.49986
8532.96281	0.49801
8529.10523	0.49726
8525.24766	0.50100
8521.39008	0.50300
8517.53250	0.50121
8513.67492	0.50180
8509.81734	0.50268
8505.95977	0.50158
8502.10219	0.50105
8498.24461	0.50040
8494.38703	0.50154
8490.52945	0.50442
8486.67187	0.50598
8482.81430	0.50646
8478.95672	0.50490
8475.09914	0.50313
8471.24156	0.50304
8467.38398	0.50277
8463.52641	0.50340
8459.66883	0.50339
8455.81125	0.50281
8451.95367	0.50564
8448.09609	0.50833
8444.23852	0.50841
8440.38094	0.50790
8436.52336	0.50628
8432.66578	0.50517
8428.80820	0.50561
8424.95062	0.50571
8421.09305	0.50588
8417.23547	0.50626
8413.37789	0.50592
8409.52031	0.50648
8405.66273	0.50794
8401.80516	0.50833
8397.94758	0.50889
8394.09000	0.50946
8390.23242	0.50776
8386.37484	0.50492
8382.51727	0.50521
8378.65969	0.50831
8374.80211	0.50821
8370.94453	0.50608
8367.08695	0.50632
8363.22937	0.50705
8359.37180	0.50743
8355.51422	0.50761
8351.65664	0.50706
8347.79906	0.50764
8343.94148	0.50854
8340.08391	0.50760
8336.22633	0.50745
8332.36875	0.50889
8328.51117	0.50861
8324.65359	0.50740
8320.79602	0.50809
8316.93844	0.50908
8313.08086	0.50861
8309.22328	0.50808
8305.36570	0.50792
8301.50812	0.50783
8297.65055	0.50845
8293.79297	0.51027
8289.93539	0.51161
8286.07781	0.50962
8282.22023	0.50895
8278.36266	0.51051
8274.50508	0.50828
8270.64750	0.50751
8266.78992	0.50988
8262.93234	0.50982
8259.07477	0.50970
8255.21719	0.50974
8251.35961	0.50872
8247.50203	0.50916
8243.64445	0.51127
8239.78687	0.51225
8235.92930	0.51004
8232.07172	0.50830
8228.21414	0.51009
8224.35656	0.51224
8220.49898	0.51240
8216.64141	0.51071
8212.78383	0.50782
8208.92625	0.50703
8205.06867	0.50872
8201.21109	0.50889
8197.35352	0.50943
8193.49594	0.51188
8189.63836	0.51181
8185.78078	0.50981
8181.92320	0.51018
8178.06562	0.51211
8174.20805	0.51246
8170.35047	0.51176
8166.49289	0.51074
8162.63531	0.50893
8158.77773	0.50902
8154.92016	0.51100
8151.06258	0.51138
8147.20500	0.51082
8143.34742	0.51081
8139.48984	0.51089
8135.63227	0.51134
8131.77469	0.51177
8127.91711	0.51051
8124.05953	0.50922
8120.20195	0.51006
8116.34437	0.50994
8112.48680	0.50985
8108.62922	0.51258
8104.77164	0.51310
8100.91406	0.51136
8097.05648	0.51076
8093.19891	0.50997
8089.34133	0.51103
8085.48375	0.51303
8081.62617	0.51147
8077.76859	0.50883
8073.91102	0.50872
8070.05344	0.51038
8066.19586	0.51149
8062.33828	0.51181
8058.48070	0.51241
8054.62312	0.51116
8050.76555	0.50855
8046.90797	0.51013
8043.05039	0.51416
8039.19281	0.51451
8035.33523	0.51280
8031.47766	0.51231
8027.62008	0.51220
8023.76250	0.51193
8019.90492	0.51216
8016.04734	0.51201
8012.18977	0.51151
8008.33219	0.51240
8004.47461	0.51241
8000.61703	0.51196
7996.75945	0.51348
7992.90187	0.51260
7989.04430	0.51153
7985.18672	0.51376
7981.32914	0.51315
7977.47156	0.50988
7973.61398	0.50855
7969.75641	0.50981
7965.89883	0.51185
7962.04125	0.51204
7958.18367	0.51201
7954.32609	0.51183
7950.46852	0.51023
7946.61094	0.50978
7942.75336	0.51085
7938.89578	0.51177
7935.03820	0.51219
7931.18062	0.51261
7927.32305	0.51243
7923.46547	0.51154
7919.60789	0.51182
7915.75031	0.51224
7911.89273	0.51125
7908.03516	0.51142
7904.17758	0.51401
7900.32000	0.51516
7896.46242	0.51449
7892.60484	0.51471
7888.74727	0.51274
7884.88969	0.50977
7881.03211	0.51050
7877.17453	0.51190
7873.31695	0.51202
7869.45937	0.51289
7865.60180	0.51380
7861.74422	0.51183
7857.88664	0.50974
7854.02906	0.51191
7850.17148	0.51323
7846.31391	0.51184
7842.45633	0.51273
7838.59875	0.51317
7834.74117	0.51168
7830.88359	0.51269
7827.02602	0.51409
7823.16844	0.51378
7819.31086	0.51389
7815.45328	0.51296
7811.59570	0.51178
7807.73812	0.51186
7803.88055	0.51136
7800.02297	0.51109
7796.16539	0.51173
7792.30781	0.51305
7788.45023	0.51399
7784.59266	0.51303
7780.73508	0.51193
7776.87750	0.51171
7773.01992	0.51150
7769.16234	0.51126
7765.30477	0.51215
7761.44719	0.51301
7757.58961	0.51223
7753.73203	0.51267
7749.87445	0.51405
7746.01687	0.51389
7742.15930	0.51296
7738.30172	0.51186
7734.44414	0.51163
7730.58656	0.51254
7726.72898	0.51321
7722.87141	0.51311
7719.01383	0.51272
7715.15625	0.51265
7711.29867	0.51296
7707.44109	0.51325
7703.58352	0.51290
7699.72594	0.51184
7695.86836	0.51094
7692.01078	0.51175
7688.15320	0.51269
7684.29562	0.51177
7680.43805	0.51194
7676.58047	0.51277
7672.72289	0.51333
7668.86531	0.51490
7665.00773	0.51429
7661.15016	0.51269
7657.29258	0.51268
7653.43500	0.51179
7649.57742	0.51115
7645.71984	0.51262
7641.86227	0.51330
7638.00469	0.51197
7634.14711	0.51144
7630.28953	0.51118
7626.43195	0.51081
7622.57437	0.51280
7618.71680	0.51391
7614.85922	0.51236
7611.00164	0.51163
7607.14406	0.51210
7603.28648	0.51224
7599.42891	0.51147
7595.57133	0.51149
7591.71375	0.51234
7587.85617	0.51203
7583.99859	0.51236
7580.14102	0.51325
7576.28344	0.51295
7572.42586	0.51282
7568.56828	0.51246
7564.71070	0.51233
7560.85312	0.51326
7556.99555	0.51291
7553.13797	0.51249
7549.28039	0.51348
7545.42281	0.51314
7541.56523	0.51228
7537.70766	0.51361
7533.85008	0.51428
7529.99250	0.51236
7526.13492	0.51212
7522.27734	0.51317
7518.41977	0.51151
7514.56219	0.51062
7510.70461	0.51201
7506.84703	0.51263
7502.98945	0.51321
7499.13187	0.51333
7495.27430	0.51267
7491.41672	0.51268
7487.55914	0.51247
7483.70156	0.51136
7479.84398	0.50976
7475.98641	0.51018
7472.12883	0.51277
7468.27125	0.51290
7464.41367	0.51165
7460.55609	0.51161
7456.69852	0.51119
7452.84094	0.51113
7448.98336	0.51217
7445.12578	0.51297
7441.26820	0.51287
7437.41062	0.51277
7433.55305	0.51296
7429.69547	0.51267
7425.83789	0.51329
7421.98031	0.51374
7418.12273	0.51214
7414.26516	0.51124
7410.40758	0.51189
7406.55000	0.51236
7402.69242	0.51202
7398.83484	0.51140
7394.97727	0.51207
7391.11969	0.51252
7387.26211	0.51110
7383.40453	0.51056
7379.54695	0.51098
7375.68937	0.51103
7371.83180	0.51196
7367.97422	0.51197
7364.11664	0.51199
7360.25906	0.51424
7356.40148	0.51426
7352.54391	0.51197
7348.68633	0.51149
7344.82875	0.51184
7340.97117	0.51186
7337.11359	0.51156
7333.25602	0.51213
7329.39844	0.51347
7325.54086	0.51225
7321.68328	0.50986
7317.82570	0.50932
7313.96812	0.51067
7310.11055	0.51235
7306.25297	0.51176
7302.39539	0.51020
7298.53781	0.50940
7294.68023	0.50949
7290.82266	0.51089
7286.96508	0.51167
7283.10750	0.51047
7279.24992	0.50945
7275.39234	0.51005
7271.53477	0.51128
7267.67719	0.51224
7263.81961	0.51184
7259.96203	0.51005
7256.10445	0.50937
7252.24687	0.50948
7248.38930	0.50991
7244.53172	0.51160
7240.67414	0.51177
7236.81656	0.51138
7232.95898	0.51183
7229.10141	0.50994
7225.24383	0.50860
7221.38625	0.51013
7217.52867	0.51176
7213.67109	0.51164
7209.81352	0.51092
7205.95594	0.51063
7202.09836	0.51054
7198.24078	0.51059
7194.38320	0.51051
7190.52562	0.50988
7186.66805	0.50957
7182.81047	0.50968
7178.95289	0.50965
7175.09531	0.51006
7171.23773	0.51091
7167.38016	0.51099
7163.52258	0.51046
7159.66500	0.51101
7155.80742	0.51192
7151.94984	0.51145
7148.09227	0.51012
7144.23469	0.50941
7140.37711	0.51004
7136.51953	0.51049
7132.66195	0.51003
7128.80437	0.51037
7124.94680	0.51078
7121.08922	0.51069
7117.23164	0.51049
7113.37406	0.50950
7109.51648	0.50952
7105.65891	0.50997
7101.80133	0.50929
7097.94375	0.50944
7094.08617	0.51005
7090.22859	0.51011
7086.37102	0.50967
7082.51344	0.50859
7078.65586	0.50808
7074.79828	0.50848
7070.94070	0.50960
7067.08312	0.51033
7063.22555	0.51048
7059.36797	0.51105
7055.51039	0.51027
7051.65281	0.50845
7047.79523	0.50862
7043.93766	0.50972
7040.08008	0.50920
7036.22250	0.50807
7032.36492	0.50806
7028.50734	0.50860
7024.64977	0.50862
7020.79219	0.50846
7016.93461	0.50845
7013.07703	0.50856
7009.21945	0.50935
7005.36187	0.51020
7001.50430	0.51011
6997.64672	0.50912
6993.78914	0.50759
6989.93156	0.50737
6986.07398	0.50872
6982.21641	0.50906
6978.35883	0.50838
6974.50125	0.50769
6970.64367	0.50738
6966.78609	0.50763
6962.92852	0.50813
6959.07094	0.50931
6955.21336	0.51004
6951.35578	0.50952
6947.49820	0.50902
6943.64062	0.50857
6939.78305	0.50798
6935.92547	0.50804
6932.06789	0.50861
6928.21031	0.50857
6924.35273	0.50849
6920.49516	0.50877
6916.63758	0.50842
6912.78000	0.50844
6908.92242	0.50874
6905.06484	0.50796
6901.20727	0.50734
6897.34969	0.50780
6893.49211	0.50783
6889.63453	0.50735
6885.77695	0.50824
6881.91937	0.50912
6878.06180	0.50846
6874.20422	0.50800
6870.34664	0.50808
6866.48906	0.50798
6862.63148	0.50790
6858.77391	0.50828
6854.91633	0.50867
6851.05875	0.50837
6847.20117	0.50815
6843.34359	0.50779
6839.48602	0.50724
6835.62844	0.50781
6831.77086	0.50835
6827.91328	0.50778
6824.05570	0.50743
6820.19812	0.50763
6816.34055	0.50719
6812.48297	0.50651
6808.62539	0.50656
6804.76781	0.50710
6800.91023	0.50818
6797.05266	0.50870
6793.19508	0.50776
6789.33750	0.50698
6785.47992	0.50688
6781.62234	0.50716
6777.76477	0.50760
6773.90719	0.50773
6770.04961	0.50781
6766.19203	0.50735
6762.33445	0.50671
6758.47687	0.50670
6754.61930	0.50676
6750.76172	0.50673
6746.90414	0.50625
6743.04656	0.50572
6739.18898	0.50550
6735.33141	0.50526
6731.47383	0.50563
6727.61625	0.50612
6723.75867	0.50636
6719.90109	0.50624
6716.04352	0.50591
6712.18594	0.50657
6708.32836	0.50678
6704.47078	0.50541
6700.61320	0.50487
6696.75562	0.50596
6692.89805	0.50705
6689.04047	0.50764
6685.18289	0.50743
6681.32531	0.50614
6677.46773	0.50538
6673.61016	0.50580
6669.75258	0.50645
6665.89500	0.50712
6662.03742	0.50717
6658.17984	0.50679
6654.32227	0.50672
6650.46469	0.50615
6646.60711	0.50529
6642.74953	0.50517
6638.89195	0.50568
6635.03437	0.50606
6631.17680	0.50581
6627.31922	0.50551
6623.46164	0.50584
6619.60406	0.50625
6615.74648	0.50614
6611.88891	0.50577
6608.03133	0.50569
6604.17375	0.50583
6600.31617	0.50605
6596.45859	0.50602
6592.60102	0.50542
6588.74344	0.50492
6584.88586	0.50494
6581.02828	0.50556
6577.17070	0.50643
6573.31312	0.50613
6569.45555	0.50521
6565.59797	0.50558
6561.74039	0.50587
6557.88281	0.50502
6554.02523	0.50484
6550.16766	0.50516
6546.31008	0.50481
6542.45250	0.50455
6538.59492	0.50530
6534.73734	0.50624
6530.87977	0.50537
6527.02219	0.50382
6523.16461	0.50401
6519.30703	0.50482
6515.44945	0.50497
6511.59187	0.50495
6507.73430	0.50494
6503.87672	0.50472
6500.01914	0.50473
6496.16156	0.50450
6492.30398	0.50375
6488.44641	0.50401
6484.58883	0.50473
6480.73125	0.50457
6476.87367	0.50445
6473.01609	0.50441
6469.15852	0.50404
6465.30094	0.50380
6461.44336	0.50392
6457.58578	0.50430
6453.72820	0.50474
6449.87062	0.50477
6446.01305	0.50429
6442.15547	0.50434
6438.29789	0.50503
6434.44031	0.50531
6430.58273	0.50481
6426.72516	0.50377
6422.86758	0.50321
6419.01000	0.50383
6415.15242	0.50435
6411.29484	0.50400
6407.43727	0.50404
6403.57969	0.50432
6399.72211	0.50406
6395.86453	0.50439
6392.00695	0.50493
6388.14937	0.50411
6384.29180	0.50345
6380.43422	0.50441
6376.57664	0.50460
6372.71906	0.50317
6368.86148	0.50283
6365.00391	0.50367
6361.14633	0.50394
6357.28875	0.50418
6353.43117	0.50433
6349.57359	0.50392
6345.71602	0.50372
6341.85844	0.50321
6338.00086	0.50276
6334.14328	0.50357
6330.28570	0.50410
6326.42812	0.50393
6322.57055	0.50392
6318.71297	0.50379
6314.85539	0.50410
6310.99781	0.50455
6307.14023	0.50434
6303.28266	0.50406
6299.42508	0.50365
6295.56750	0.50348
6291.70992	0.50415
6287.85234	0.50459
6283.99477	0.50413
6280.13719	0.50321
6276.27961	0.50307
6272.42203	0.50375
6268.56445	0.50388
6264.70687	0.50389
6260.84930	0.50343
6256.99172	0.50225
6253.13414	0.50247
6249.27656	0.50309
6245.41898	0.50267
6241.56141	0.50273
6237.70383	0.50313
6233.84625	0.50315
6229.98867	0.50339
6226.13109	0.50358
6222.27352	0.50321
6218.41594	0.50294
6214.55836	0.50328
6210.70078	0.50382
6206.84320	0.50401
6202.98562	0.50386
6199.12805	0.50324
6195.27047	0.50237
6191.41289	0.50262
6187.55531	0.50321
6183.69773	0.50275
6179.84016	0.50269
6175.98258	0.50304
6172.12500	0.50277
6168.26742	0.50295
6164.40984	0.50386
6160.55227	0.50369
6156.69469	0.50281
6152.83711	0.50341
6148.97953	0.50397
6145.12195	0.50301
6141.26437	0.50220
6137.40680	0.50197
6133.54922	0.50227
6129.69164	0.50256
6125.83406	0.50234
6121.97648	0.50282
6118.11891	0.50371
6114.26133	0.50403
6110.40375	0.50379
6106.54617	0.50321
6102.68859	0.50286
6098.83102	0.50260
6094.97344	0.50259
6091.11586	0.50287
6087.25828	0.50307
6083.40070	0.50335
6079.54312	0.50299
6075.68555	0.50242
6071.82797	0.50264
6067.97039	0.50293
6064.11281	0.50311
6060.25523	0.50304
6056.39766	0.50290
6052.54008	0.50325
6048.68250	0.50312
6044.82492	0.50271
6040.96734	0.50316
6037.10977	0.50369
6033.25219	0.50354
6029.39461	0.50328
6025.53703	0.50336
6021.67945	0.50340
6017.82187	0.50306
6013.96430	0.50289
6010.10672	0.50319
6006.24914	0.50326
6002.39156	0.50316
5998.53398	0.50321
5994.67641	0.50308
5990.81883	0.50319
5986.96125	0.50335
5983.10367	0.50295
5979.24609	0.50306
5975.38852	0.50325
5971.53094	0.50297
5967.67336	0.50342
5963.81578	0.50343
5959.95820	0.50284
5956.10062	0.50321
5952.24305	0.50328
5948.38547	0.50304
5944.52789	0.50335
5940.67031	0.50328
5936.81273	0.50341
5932.95516	0.50397
5929.09758	0.50368
5925.24000	0.50280
5921.38242	0.50249
5917.52484	0.50285
5913.66727	0.50279
5909.80969	0.50219
5905.95211	0.50229
5902.09453	0.50270
5898.23695	0.50225
5894.37937	0.50202
5890.52180	0.50262
5886.66422	0.50282
5882.80664	0.50292
5878.94906	0.50318
5875.09148	0.50310
5871.23391	0.50332
5867.37633	0.50303
5863.51875	0.50192
5859.66117	0.50203
5855.80359	0.50286
5851.94602	0.50313
5848.08844	0.50355
5844.23086	0.50346
5840.37328	0.50271
5836.51570	0.50270
5832.65812	0.50254
5828.80055	0.50205
5824.94297	0.50265
5821.08539	0.50302
5817.22781	0.50272
5813.37023	0.50329
5809.51266	0.50396
5805.65508	0.50374
5801.79750	0.50298
5797.93992	0.50241
5794.08234	0.50249
5790.22477	0.50246
5786.36719	0.50233
5782.50961	0.50267
5778.65203	0.50299
5774.79445	0.50341
5770.93687	0.50398
5767.07930	0.50386
5763.22172	0.50308
5759.36414	0.50252
5755.50656	0.50270
5751.64898	0.50339
5747.79141	0.50372
5743.93383	0.50361
5740.07625	0.50374
5736.21867	0.50372
5732.36109	0.50318
5728.50352	0.50298
5724.64594	0.50340
5720.78836	0.50364
5716.93078	0.50341
5713.07320	0.50322
5709.21562	0.50294
5705.35805	0.50274
5701.50047	0.50343
5697.64289	0.50392
5693.78531	0.50336
5689.92773	0.50275
5686.07016	0.50264
5682.21258	0.50308
5678.35500	0.50349
5674.49742	0.50341
5670.63984	0.50315
5666.78227	0.50270
5662.92469	0.50262
5659.06711	0.50310
5655.20953	0.50341
5651.35195	0.50398
5647.49437	0.50442
5643.63680	0.50367
5639.77922	0.50319
5635.92164	0.50350
5632.06406	0.50335
5628.20648	0.50339
5624.34891	0.50382
5620.49133	0.50400
5616.63375	0.50409
5612.77617	0.50389
5608.91859	0.50366
5605.06102	0.50366
5601.20344	0.50374
5597.34586	0.50405
5593.48828	0.50412
5589.63070	0.50381
5585.77312	0.50342
5581.91555	0.50317
5578.05797	0.50357
5574.20039	0.50411
5570.34281	0.50432
5566.48523	0.50446
5562.62766	0.50394
5558.77008	0.50309
5554.91250	0.50342
5551.05492	0.50427
5547.19734	0.50434
5543.33977	0.50441
5539.48219	0.50437
5535.62461	0.50381
5531.76703	0.50398
5527.90945	0.50478
5524.05187	0.50503
5520.19430	0.50482
5516.33672	0.50500
5512.47914	0.50459
5508.62156	0.50339
5504.76398	0.50361
5500.90641	0.50373
5497.04883	0.50281
5493.19125	0.50385
5489.33367	0.50525
5485.47609	0.50501
5481.61852	0.50553
5477.76094	0.50596
5473.90336	0.50509
5470.04578	0.50465
5466.18820	0.50338
5462.33062	0.50212
5458.47305	0.50359
5454.61547	0.50486
5450.75789	0.50573
5446.90031	0.50694
5443.04273	0.50672
5439.18516	0.50741
5435.32758	0.50784
5431.47000	0.50590
5427.61242	0.50517
5423.75484	0.50581
5419.89727	0.50528
5416.03969	0.50468
5412.18211	0.50617
5408.32453	0.50701
5404.46695	0.50616
5400.60937	0.50643
5396.75180	0.50694
5392.89422	0.50633
5389.03664	0.50604
5385.17906	0.50667
5381.32148	0.50665
5377.46391	0.50437
5373.60633	0.50341
5369.74875	0.50550
5365.89117	0.50704
5362.03359	0.50664
5358.17602	0.50588
5354.31844	0.50595
5350.46086	0.50690
5346.60328	0.50762
5342.74570	0.50532
5338.88812	0.50234
5335.03055	0.50406
5331.17297	0.50622
5327.31539	0.50646
5323.45781	0.50692
5319.60023	0.50703
5315.74266	0.50694
5311.88508	0.50711
5308.02750	0.50730
5304.16992	0.50691
5300.31234	0.50661
5296.45477	0.50783
5292.59719	0.50851
5288.73961	0.50726
5284.88203	0.50601
5281.02445	0.50603
5277.16687	0.50689
5273.30930	0.50769
5269.45172	0.50792
5265.59414	0.50815
5261.73656	0.50946
5257.87898	0.50894
5254.02141	0.50609
5250.16383	0.50630
5246.30625	0.50888
5242.44867	0.50848
5238.59109	0.50715
5234.73352	0.50753
5230.87594	0.50849
5227.01836	0.50913
5223.16078	0.50918
5219.30320	0.50838
5215.44562	0.50850
5211.58805	0.50944
5207.73047	0.50932
5203.87289	0.50847
5200.01531	0.50739
5196.15773	0.50670
5192.30016	0.50682
5188.44258	0.50740
5184.58500	0.50907
5180.72742	0.50951
5176.86984	0.50829
5173.01227	0.50795
5169.15469	0.50797
5165.29711	0.50793
5161.43953	0.50804
5157.58195	0.50821
5153.72437	0.50902
5149.86680	0.50938
5146.00922	0.50906
5142.15164	0.50919
5138.29406	0.50947
5134.43648	0.50927
5130.57891	0.50892
5126.72133	0.50911
5122.86375	0.50941
5119.00617	0.50953
5115.14859	0.50973
5111.29102	0.50944
5107.43344	0.50887
5103.57586	0.50887
5099.71828	0.50901
5095.86070	0.50890
5092.00312	0.50915
5088.14555	0.50974
5084.28797	0.50981
5080.43039	0.50966
5076.57281	0.50987
5072.71523	0.50985
5068.85766	0.50970
5065.00008	0.50981
5061.14250	0.50989
5057.28492	0.51029
5053.42734	0.51066
5049.56977	0.51003
5045.71219	0.50967
5041.85461	0.51009
5037.99703	0.50989
5034.13945	0.50960
5030.28187	0.51018
5026.42430	0.51073
5022.56672	0.51056
5018.70914	0.51003
5014.85156	0.51009
5010.99398	0.51085
5007.13641	0.51098
5003.27883	0.51035
4999.42125	0.51019
4995.56367	0.51101
4991.70609	0.51167
4987.84852	0.51121
4983.99094	0.51092
4980.13336	0.51146
4976.27578	0.51173
4972.41820	0.51161
4968.56062	0.51153
4964.70305	0.51140
4960.84547	0.51136
4956.98789	0.51141
4953.13031	0.51165
4949.27273	0.51211
4945.41516	0.51207
4941.55758	0.51195
4937.70000	0.51208
4933.84242	0.51149
4929.98484	0.51128
4926.12727	0.51177
4922.26969	0.51195
4918.41211	0.51253
4914.55453	0.51285
4910.69695	0.51249
4906.83937	0.51262
4902.98180	0.51267
4899.12422	0.51239
4895.26664	0.51229
4891.40906	0.51240
4887.55148	0.51246
4883.69391	0.51251
4879.83633	0.51281
4875.97875	0.51268
4872.12117	0.51270
4868.26359	0.51377
4864.40602	0.51427
4860.54844	0.51382
4856.69086	0.51360
4852.83328	0.51333
4848.97570	0.51278
4845.11812	0.51269
4841.26055	0.51308
4837.40297	0.51344
4833.54539	0.51362
4829.68781	0.51330
4825.83023	0.51266
4821.97266	0.51263
4818.11508	0.51319
4814.25750	0.51377
4810.39992	0.51395
4806.54234	0.51370
4802.68477	0.51344
4798.82719	0.51333
4794.96961	0.51347
4791.11203	0.51336
4787.25445	0.51315
4783.39687	0.51367
4779.53930	0.51409
4775.68172	0.51408
4771.82414	0.51409
4767.96656	0.51398
4764.10898	0.51384
4760.25141	0.51356
4756.39383	0.51333
4752.53625	0.51348
4748.67867	0.51378
4744.82109	0.51380
4740.96352	0.51355
4737.10594	0.51371
4733.24836	0.51408
4729.39078	0.51414
4725.53320	0.51418
4721.67562	0.51434
4717.81805	0.51430
4713.96047	0.51395
4710.10289	0.51407
4706.24531	0.51453
4702.38773	0.51441
4698.53016	0.51426
4694.67258	0.51441
4690.81500	0.51445
4686.95742	0.51443
4683.09984	0.51447
4679.24227	0.51453
4675.38469	0.51464
4671.52711	0.51478
4667.66953	0.51462
4663.81195	0.51434
4659.95437	0.51454
4656.09680	0.51478
4652.23922	0.51472
4648.38164	0.51482
4644.52406	0.51463
4640.66648	0.51428
4636.80891	0.51474
4632.95133	0.51511
4629.09375	0.51480
4625.23617	0.51482
4621.37859	0.51506
4617.52102	0.51505
4613.66344	0.51514
4609.80586	0.51518
4605.94828	0.51499
4602.09070	0.51503
4598.23312	0.51520
4594.37555	0.51514
4590.51797	0.51526
4586.66039	0.51551
4582.80281	0.51524
4578.94523	0.51495
4575.08766	0.51522
4571.23008	0.51562
4567.37250	0.51559
4563.51492	0.51523
4559.65734	0.51532
4555.79977	0.51579
4551.94219	0.51582
4548.08461	0.51582
4544.22703	0.51590
4540.36945	0.51530
4536.51187	0.51479
4532.65430	0.51502
4528.79672	0.51517
4524.93914	0.51537
4521.08156	0.51582
4517.22398	0.51590
4513.36641	0.51580
4509.50883	0.51585
4505.65125	0.51584
4501.79367	0.51583
4497.93609	0.51591
4494.07852	0.51600
4490.22094	0.51610
4486.36336	0.51613
4482.50578	0.51603
4478.64820	0.51598
4474.79062	0.51598
4470.93305	0.51592
4467.07547	0.51588
4463.21789	0.51584
4459.36031	0.51555
4455.50273	0.51524
4451.64516	0.51561
4447.78758	0.51602
4443.93000	0.51593
4440.07242	0.51603
4436.21484	0.51593
4432.35727	0.51564
4428.49969	0.51597
4424.64211	0.51640
4420.78453	0.51661
4416.92695	0.51652
4413.06937	0.51603
4409.21180	0.51597
4405.35422	0.51640
4401.49664	0.51628
4397.63906	0.51597
4393.78148	0.51626
4389.92391	0.51635
4386.06633	0.51596
4382.20875	0.51583
4378.35117	0.51577
4374.49359	0.51562
4370.63602	0.51596
4366.77844	0.51647
4362.92086	0.51636
4359.06328	0.51591
4355.20570	0.51573
4351.34812	0.51578
4347.49055	0.51581
4343.63297	0.51591
4339.77539	0.51625
4335.91781	0.51637
4332.06023	0.51628
4328.20266	0.51633
4324.34508	0.51590
4320.48750	0.51545
4316.62992	0.51572
4312.77234	0.51594
4308.91477	0.51602
4305.05719	0.51613
4301.19961	0.51609
4297.34203	0.51609
4293.48445	0.51589
4289.62687	0.51586
4285.76930	0.51625
4281.91172	0.51615
4278.05414	0.51567
4274.19656	0.51555
4270.33898	0.51578
4266.48141	0.51590
4262.62383	0.51581
4258.76625	0.51591
4254.90867	0.51581
4251.05109	0.51531
4247.19352	0.51523
4243.33594	0.51550
4239.47836	0.51563
4235.62078	0.51586
4231.76320	0.51584
4227.90562	0.51533
4224.04805	0.51526
4220.19047	0.51569
4216.33289	0.51574
4212.47531	0.51578
4208.61773	0.51601
4204.76016	0.51588
4200.90258	0.51530
4197.04500	0.51501
4193.18742	0.51539
4189.32984	0.51552
4185.47227	0.51534
4181.61469	0.51543
4177.75711	0.51561
4173.89953	0.51564
4170.04195	0.51552
4166.18437	0.51547
4162.32680	0.51551
4158.46922	0.51556
4154.61164	0.51562
4150.75406	0.51534
4146.89648	0.51514
4143.03891	0.51538
4139.18133	0.51573
4135.32375	0.51611
4131.46617	0.51606
4127.60859	0.51554
4123.75102	0.51523
4119.89344	0.51516
4116.03586	0.51517
4112.17828	0.51537
4108.32070	0.51562
4104.46312	0.51564
4100.60555	0.51556
4096.74797	0.51557
4092.89039	0.51565
4089.03281	0.51566
4085.17523	0.51535
4081.31766	0.51524
4077.46008	0.51557
4073.60250	0.51564
4069.74492	0.51559
4065.88734	0.51547
4062.02977	0.51513
4058.17219	0.51512
4054.31461	0.51540
4050.45703	0.51554
4046.59945	0.51527
4042.74187	0.51501
4038.88430	0.51519
4035.02672	0.51519
4031.16914	0.51497
4027.31156	0.51502
4023.45398	0.51507
4019.59641	0.51487
4015.73883	0.51483
4011.88125	0.51505
4008.02367	0.51494
4004.16609	0.51502
4000.30852	0.51533
3996.45094	0.51506
3992.59336	0.51501
3988.73578	0.51525
3984.87820	0.51508
3981.02062	0.51543
3977.16305	0.51555
3973.30547	0.51460
3969.44789	0.51447
3965.59031	0.51504
3961.73273	0.51493
3957.87516	0.51472
3954.01758	0.51424
3950.16000	0.51356
3946.30242	0.51418
3942.44484	0.51434
3938.58727	0.51392
3934.72969	0.51532
3930.87211	0.51612
3927.01453	0.51547
3923.15695	0.51481
3919.29937	0.51244
3915.44180	0.51249
3911.58422	0.51448
3907.72664	0.51502
3903.86906	0.51757
3900.01148	0.51844
3896.15391	0.51496
3892.29633	0.51357
3888.43875	0.51469
3884.58117	0.51509
3880.72359	0.51622
3876.86602	0.51842
3873.00844	0.51851
3869.15086	0.51583
3865.29328	0.51243
3861.43570	0.51158
3857.57812	0.51555
3853.72055	0.51760
3849.86297	0.51408
3846.00539	0.51648
3842.14781	0.52219
3838.29023	0.52290
3834.43266	0.51535
3830.57508	0.51160
3826.71750	0.51357
3822.85992	0.51538
3819.00234	0.51526
3815.14477	0.51587
3811.28719	0.51579
3807.42961	0.51433
3803.57203	0.51219
3799.71445	0.51263
3795.85687	0.51369
3791.99930	0.51391
3788.14172	0.51419
3784.28414	0.51412
3780.42656	0.51356
3776.56898	0.51286
3772.71141	0.51286
3768.85383	0.51525
3764.99625	0.51666
3761.13867	0.51277
3757.28109	0.50920
3753.42352	0.51307
3749.56594	0.51674
3745.70836	0.51542
3741.85078	0.51746
3737.99320	0.51717
3734.13562	0.51075
3730.27805	0.50815
3726.42047	0.50960
3722.56289	0.51335
3718.70531	0.51443
3714.84773	0.51155
3710.99016	0.50733
3707.13258	0.51004
3703.27500	0.51272
3699.41742	0.51157
3695.55984	0.51274
3691.70227	0.51653
3687.84469	0.51469
3683.98711	0.51268
3680.12953	0.51314
3676.27195	0.51416
3672.41437	0.51370
3668.55680	0.51212
3664.69922	0.51244
3660.84164	0.51241
3656.98406	0.51154
3653.12648	0.51270
3649.26891	0.51449
3645.41133	0.51385
3641.55375	0.51289
3637.69617	0.51167
3633.83859	0.51151
3629.98102	0.51066
3626.12344	0.50914
3622.26586	0.51017
3618.40828	0.51047
3614.55070	0.50844
3610.69312	0.50669
3606.83555	0.50713
3602.97797	0.50911
3599.12039	0.50966
3595.26281	0.50897
3591.40523	0.50981
3587.54766	0.51239
3583.69008	0.51372
3579.83250	0.51309
3575.97492	0.51224
3572.11734	0.51199
3568.25977	0.51209
3564.40219	0.51156
3560.54461	0.51078
3556.68703	0.51097
3552.82945	0.51174
3548.97187	0.51230
3545.11430	0.51255
3541.25672	0.51220
3537.39914	0.51241
3533.54156	0.51292
3529.68398	0.51250
3525.82641	0.51186
3521.96883	0.51184
3518.11125	0.51203
3514.25367	0.51171
3510.39609	0.51112
3506.53852	0.51143
3502.68094	0.51195
3498.82336	0.51167
3494.96578	0.51139
3491.10820	0.51134
3487.25062	0.51092
3483.39305	0.51067
3479.53547	0.51120
3475.67789	0.51142
3471.82031	0.51120
3467.96273	0.51133
3464.10516	0.51128
3460.24758	0.51111
3456.39000	0.51120
3452.53242	0.51156
3448.67484	0.51213
3444.81727	0.51187
3440.95969	0.51125
3437.10211	0.51131
3433.24453	0.51132
3429.38695	0.51095
3425.52937	0.51066
3421.67180	0.51064
3417.81422	0.51060
3413.95664	0.51067
3410.09906	0.51098
3406.24148	0.51092
3402.38391	0.51074
3398.52633	0.51075
3394.66875	0.51066
3390.81117	0.51065
3386.95359	0.51069
3383.09602	0.51058
3379.23844	0.51060
3375.38086	0.51082
3371.52328	0.51079
3367.66570	0.51049
3363.80812	0.51038
3359.95055	0.51039
3356.09297	0.51034
3352.23539	0.51040
3348.37781	0.51048
3344.52023	0.51034
3340.66266	0.51033
3336.80508	0.51040
3332.94750	0.51032
3329.08992	0.51031
3325.23234	0.51039
3321.37477	0.51041
3317.51719	0.51022
3313.65961	0.51011
3309.80203	0.51023
3305.94445	0.51029
3302.08687	0.51043
3298.22930	0.51050
3294.37172	0.51053
3290.51414	0.51058
3286.65656	0.51025
3282.79898	0.51002
3278.94141	0.51008
3275.08383	0.51018
3271.22625	0.51035
3267.36867	0.51029
3263.51109	0.51013
3259.65352	0.51006
3255.79594	0.51000
3251.93836	0.51000
3248.08078	0.51003
3244.22320	0.51010
3240.36562	0.51017
3236.50805	0.51028
3232.65047	0.51028
3228.79289	0.51019
3224.93531	0.51026
3221.07773	0.51023
3217.22016	0.51017
3213.36258	0.51019
3209.50500	0.51003
3205.64742	0.50993
3201.78984	0.51013
3197.93227	0.51037
3194.07469	0.51039
3190.21711	0.51024
3186.35953	0.50994
3182.50195	0.50975
3178.64437	0.50975
3174.78680	0.50979
3170.92922	0.50991
3167.07164	0.50995
3163.21406	0.50994
3159.35648	0.50997
3155.49891	0.50991
3151.64133	0.50991
3147.78375	0.50990
3143.92617	0.50988
3140.06859	0.50997
3136.21102	0.51008
3132.35344	0.51018
3128.49586	0.50990
3124.63828	0.50971
3120.78070	0.51005
3116.92312	0.51010
3113.06555	0.50977
3109.20797	0.50962
3105.35039	0.50962
3101.49281	0.50970
3097.63523	0.50973
3093.77766	0.50957
3089.92008	0.50933
3086.06250	0.50938
3082.20492	0.50962
3078.34734	0.50959
3074.48977	0.50947
3070.63219	0.50951
3066.77461	0.50962
3062.91703	0.50967
3059.05945	0.50950
3055.20187	0.50942
3051.34430	0.50932
3047.48672	0.50909
3043.62914	0.50914
3039.77156	0.50935
3035.91398	0.50938
3032.05641	0.50934
3028.19883	0.50943
3024.34125	0.50944
3020.48367	0.50928
3016.62609	0.50919
3012.76852	0.50912
3008.91094	0.50913
3005.05336	0.50917
3001.19578	0.50903
2997.33820	0.50881
2993.48062	0.50863
2989.62305	0.50879
2985.76547	0.50887
2981.90789	0.50847
2978.05031	0.50829
2974.19273	0.50838
2970.33516	0.50822
2966.47758	0.50778
2962.62000	0.50732
2958.76242	0.50713
2954.90484	0.50726
2951.04727	0.50749
2947.18969	0.50726
2943.33211	0.50670
2939.47453	0.50652
2935.61695	0.50653
2931.75937	0.50624
2927.90180	0.50584
2924.04422	0.50559
2920.18664	0.50535
2916.32906	0.50535
2912.47148	0.50607
2908.61391	0.50696
2904.75633	0.50725
2900.89875	0.50716
2897.04117	0.50713
2893.18359	0.50712
2889.32602	0.50727
2885.46844	0.50764
2881.61086	0.50784
2877.75328	0.50773
2873.89570	0.50741
2870.03812	0.50714
2866.18055	0.50723
2862.32297	0.50739
2858.46539	0.50736
2854.60781	0.50726
2850.75023	0.50733
2846.89266	0.50759
2843.03508	0.50794
2839.17750	0.50826
2835.31992	0.50828
2831.46234	0.50837
2827.60477	0.50876
2823.74719	0.50885
2819.88961	0.50863
2816.03203	0.50848
2812.17445	0.50849
2808.31687	0.50855
2804.45930	0.50856
2800.60172	0.50860
2796.74414	0.50853
2792.88656	0.50832
2789.02898	0.50822
2785.17141	0.50842
2781.31383	0.50883
2777.45625	0.50904
2773.59867	0.50887
2769.74109	0.50853
2765.88352	0.50840
2762.02594	0.50854
2758.16836	0.50853
2754.31078	0.50849
2750.45320	0.50837
2746.59562	0.50815
2742.73805	0.50853
2738.88047	0.50923
2735.02289	0.50940
2731.16531	0.50906
2727.30773	0.50866
2723.45016	0.50858
2719.59258	0.50873
2715.73500	0.50863
2711.87742	0.50824
2708.01984	0.50820
2704.16227	0.50852
2700.30469	0.50859
2696.44711	0.50873
2692.58953	0.50899
2688.73195	0.50882
2684.87437	0.50862
2681.01680	0.50866
2677.15922	0.50865
2673.30164	0.50870
2669.44406	0.50883
2665.58648	0.50881
2661.72891	0.50859
2657.87133	0.50852
2654.01375	0.50871
2650.15617	0.50886
2646.29859	0.50875
2642.44102	0.50837
2638.58344	0.50807
2634.72586	0.50822
2630.86828	0.50858
2627.01070	0.50867
2623.15312	0.50853
2619.29555	0.50846
2615.43797	0.50846
2611.58039	0.50842
2607.72281	0.50831
2603.86523	0.50817
2600.00766	0.50823
2596.15008	0.50855
2592.29250	0.50859
2588.43492	0.50822
2584.57734	0.50827
2580.71977	0.50850
2576.86219	0.50814
2573.00461	0.50798
2569.14703	0.50812
2565.28945	0.50792
2561.43187	0.50775
2557.57430	0.50772
2553.71672	0.50791
2549.85914	0.50829
2546.00156	0.50834
2542.14398	0.50821
2538.28641	0.50815
2534.42883	0.50816
2530.57125	0.50824
2526.71367	0.50824
2522.85609	0.50801
2518.99852	0.50768
2515.14094	0.50763
2511.28336	0.50769
2507.42578	0.50766
2503.56820	0.50804
2499.71062	0.50829
2495.85305	0.50791
2491.99547	0.50765
2488.13789	0.50772
2484.28031	0.50794
2480.42273	0.50801
2476.56516	0.50794
2472.70758	0.50836
2468.85000	0.50846
2464.99242	0.50768
2461.13484	0.50729
2457.27727	0.50770
2453.41969	0.50800
2449.56211	0.50794
2445.70453	0.50824
2441.84695	0.50848
2437.98937	0.50797
2434.13180	0.50775
2430.27422	0.50794
2426.41664	0.50802
2422.55906	0.50825
2418.70148	0.50836
2414.84391	0.50820
2410.98633	0.50815
2407.12875	0.50821
2403.27117	0.50823
2399.41359	0.50821
2395.55602	0.50830
2391.69844	0.50831
2387.84086	0.50766
2383.98328	0.50557
2380.12570	0.50123
2376.26812	0.49591
2372.41055	0.49363
2368.55297	0.49091
2364.69539	0.48255
2360.83781	0.48689
2356.98023	0.49593
2353.12266	0.49362
2349.26508	0.49080
2345.40750	0.48661
2341.54992	0.48212
2337.69234	0.48544
2333.83477	0.48496
2329.97719	0.47832
2326.11961	0.48590
2322.26203	0.49834
2318.40445	0.49720
2314.54687	0.49454
2310.68930	0.49605
2306.83172	0.49931
2302.97414	0.50283
2299.11656	0.50363
2295.25898	0.50292
2291.40141	0.50362
2287.54383	0.50505
2283.68625	0.50609
2279.82867	0.50619
2275.97109	0.50646
2272.11352	0.50691
2268.25594	0.50635
2264.39836	0.50638
2260.54078	0.50642
2256.68320	0.50600
2252.82562	0.50682
2248.96805	0.50708
2245.11047	0.50672
2241.25289	0.50753
2237.39531	0.50727
2233.53773	0.50562
2229.68016	0.50578
2225.82258	0.50712
2221.96500	0.50775
2218.10742	0.50869
2214.24984	0.50921
2210.39227	0.50863
2206.53469	0.50829
2202.67711	0.50769
2198.81953	0.50702
2194.96195	0.50691
2191.10437	0.50628
2187.24680	0.50612
2183.38922	0.50692
2179.53164	0.50674
2175.67406	0.50673
2171.81648	0.50783
2167.95891	0.50774
2164.10133	0.50680
2160.24375	0.50639
2156.38617	0.50638
2152.52859	0.50679
2148.67102	0.50717
2144.81344	0.50774
2140.95586	0.50814
2137.09828	0.50667
2133.24070	0.50478
2129.38312	0.50566
2125.52555	0.50794
2121.66797	0.50810
2117.81039	0.50678
2113.95281	0.50594
2110.09523	0.50561
2106.23766	0.50567
2102.38008	0.50689
2098.52250	0.50735
2094.66492	0.50602
2090.80734	0.50834
2086.94977	0.50977
2083.09219	0.50553
2079.23461	0.50499
2075.37703	0.50577
2071.51945	0.50451
2067.66187	0.50573
2063.80430	0.50544
2059.94672	0.50451
2056.08914	0.50590
2052.23156	0.50382
2048.37398	0.49956
2044.51641	0.50093
2040.65883	0.50415
2036.80125	0.50467
2032.94367	0.50509
2029.08609	0.50439
2025.22852	0.50581
2021.37094	0.51010
2017.51336	0.50863
2013.65578	0.50151
2009.79820	0.49764
2005.94062	0.49950
2002.08305	0.50306
1998.22547	0.50690
1994.36789	0.50907
1990.51031	0.50356
1986.65273	0.49819
1982.79516	0.50170
1978.93758	0.50574
1975.08000	0.50661
1971.22242	0.50797
1967.36484	0.50619
1963.50727	0.50431
1959.64969	0.50542
1955.79211	0.50347
1951.93453	0.50196
1948.07695	0.50221
1944.21937	0.50064
1940.36180	0.50324
1936.50422	0.50663
1932.64664	0.50377
1928.78906	0.50078
1924.93148	0.50110
1921.07391	0.50219
1917.21633	0.50633
1913.35875	0.50891
1909.50117	0.50543
1905.64359	0.50237
1901.78602	0.50020
1897.92844	0.49748
1894.07086	0.49848
1890.21328	0.50190
1886.35570	0.50560
1882.49812	0.50580
1878.64055	0.50156
1874.78297	0.50118
1870.92539	0.50688
1867.06781	0.50980
1863.21023	0.50560
1859.35266	0.50176
1855.49508	0.49898
1851.63750	0.49748
1847.77992	0.50159
1843.92234	0.50837
1840.06477	0.50696
1836.20719	0.50228
1832.34961	0.50038
1828.49203	0.50021
1824.63445	0.50096
1820.77687	0.50394
1816.91930	0.50509
1813.06172	0.50232
1809.20414	0.49864
1805.34656	0.49727
1801.48898	0.50015
1797.63141	0.50439
1793.77383	0.50506
1789.91625	0.50418
1786.05867	0.50400
1782.20109	0.50393
1778.34352	0.50358
1774.48594	0.50258
1770.62836	0.50470
1766.77078	0.50915
1762.91320	0.50872
1759.05562	0.50436
1755.19805	0.50280
1751.34047	0.50100
1747.48289	0.49790
1743.62531	0.50249
1739.76773	0.50856
1735.91016	0.50477
1732.05258	0.49657
1728.19500	0.49755
1724.33742	0.50055
1720.47984	0.50170
1716.62227	0.49816
1712.76469	0.49279
1708.90711	0.49088
1705.04953	0.49614
1701.19195	0.50765
1697.33437	0.50455
1693.47680	0.49637
1689.61922	0.49691
1685.76164	0.50035
1681.90406	0.50075
1678.04648	0.50093
1674.18891	0.50261
1670.33133	0.50017
1666.47375	0.49762
1662.61617	0.49907
1658.75859	0.50086
1654.90102	0.50460
1651.04344	0.50898
1647.18586	0.50433
1643.32828	0.50009
1639.47070	0.49909
1635.61312	0.49865
1631.75555	0.49935
1627.89797	0.49936
1624.04039	0.49880
1620.18281	0.50159
1616.32523	0.50577
1612.46766	0.50477
1608.61008	0.50024
1604.75250	0.49729
1600.89492	0.49776
1597.03734	0.49849
1593.17977	0.49889
1589.32219	0.50014
1585.46461	0.50088
1581.60703	0.50180
1577.74945	0.50244
1573.89187	0.49933
1570.03430	0.50019
1566.17672	0.50257
1562.31914	0.50210
1558.46156	0.51138
1554.60398	0.51117
1550.74641	0.50053
1546.88883	0.49513
1543.03125	0.49010
1539.17367	0.49014
1535.31609	0.49637
1531.45852	0.49844
1527.60094	0.49751
1523.74336	0.50230
1519.88578	0.51539
1516.02820	0.51086
1512.17062	0.50126
1508.31305	0.49454
1504.45547	0.49202
1500.59789	0.49265
1496.74031	0.49876
1492.88273	0.50608
1489.02516	0.50505
1485.16758	0.49874
1481.31000	0.49350
1477.45242	0.48920
1473.59484	0.48493
1469.73727	0.48206
1465.87969	0.48476
1462.02211	0.48944
1458.16453	0.49358
1454.30695	0.49221
1450.44937	0.48617
1446.59180	0.48267
1442.73422	0.48216
1438.87664	0.48398
1435.01906	0.49060
1431.16148	0.49335
1427.30391	0.49228
1423.44633	0.49722
1419.58875	0.50332
1415.73117	0.49792
1411.87359	0.49549
1408.01602	0.49892
1404.15844	0.49738
1400.30086	0.48974
1396.44328	0.48667
1392.58570	0.49307
1388.72812	0.49487
1384.87055	0.48953
1381.01297	0.48647
1377.15539	0.48562
1373.29781	0.48634
1369.44023	0.49203
1365.58266	0.50014
1361.72508	0.49987
1357.86750	0.49157
1354.00992	0.48858
1350.15234	0.48902
1346.29477	0.49161
1342.43719	0.49309
1338.57961	0.48607
1334.72203	0.48468
1330.86445	0.49229
1327.00687	0.49514
1323.14930	0.49263
1319.29172	0.49033
1315.43414	0.48703
1311.57656	0.48046
1307.71898	0.47418
1303.86141	0.47478
1300.00383	0.48328
1296.14625	0.49179
1292.28867	0.49390
1288.43109	0.49250
1284.57352	0.48910
1280.71594	0.48571
1276.85836	0.48920
1273.00078	0.49874
1269.14320	0.49640
1265.28562	0.48645
1261.42805	0.49858
1257.57047	0.51592
1253.71289	0.51043
1249.85531	0.49657
1245.99773	0.48159
1242.14016	0.47692
1238.28258	0.48686
1234.42500	0.49120
1230.56742	0.49121
1226.70984	0.49671
1222.85227	0.50044
1218.99469	0.49695
1215.13711	0.49647
1211.27953	0.49196
1207.42195	0.47851
1203.56437	0.47955
1199.70680	0.48362
1195.84922	0.47815
1191.99164	0.48842
1188.13406	0.49721
1184.27648	0.48711
1180.41891	0.49044
1176.56133	0.50586
1172.70375	0.50395
1168.84617	0.49546
1164.98859	0.49546
1161.13102	0.49288
1157.27344	0.48360
1153.41586	0.47797
1149.55828	0.47761
1145.70070	0.48303
1141.84312	0.49403
1137.98555	0.47743
1134.12797	0.45369
1130.27039	0.48056
1126.41281	0.45231
1122.55523	0.36470
1118.69766	0.37096
1114.84008	0.44125
1110.98250	0.46730
1107.12492	0.42403
1103.26734	0.32869
1099.40977	0.33727
1095.55219	0.44445
1091.69461	0.44048
1087.83703	0.35717
1083.97945	0.34443
1080.12187	0.37847
1076.26430	0.54351
1072.40672	0.52241
1068.54914	0.38349
1064.69156	2.95804
1060.83398	2.95804
1056.97641	3.58023
1053.11883	1.66058
1049.26125	1.25948
1045.40367	0.27502
1041.54609	0.69476
1037.68852	0.54866
1033.83094	-0.13614
1029.97336	-0.19309
1026.11578	0.73927
1022.25820	0.81790
1018.40062	0.37829
1014.54305	0.48548
1010.68547	1.45323
1006.82789	1.45323
1002.97031	5.06682
999.11273	0.48616
995.25516	0.48616
991.39758	0.48616
987.54000	0.86364
983.68242	-0.41802
979.82484	-0.77963
975.96727	-0.77963
972.10969	4.83632
968.25211	4.83632
964.39453	4.83632
960.53695	4.83632
956.67937	1.01841
952.82180	2.60060
948.96422	2.40057
945.10664	1.68003
941.24906	1.97032
937.39148	1.97032
933.53391	1.97032
929.67633	0.19882
925.81875	-0.01862
921.96117	-0.16703
918.10359	-0.18814
914.24602	-0.12833
910.38844	-0.70064
906.53086	-0.70064
902.67328	0.89932
898.81570	1.02921
894.95812	1.28505
891.10055	0.22040
887.24297	-3.46313
883.38539	-0.21937
879.52781	0.30014
875.67023	0.04252
871.81266	-0.05105
867.95508	-0.08400
864.09750	-0.08400
860.23992	-0.08400
856.38234	3.11740
852.52477	0.62304
848.66719	0.49316
844.80961	0.37596
840.95203	0.31391
837.09445	0.69192
833.23687	1.38652
829.37930	-2.23646
825.52172	-0.35723
821.66414	-0.22933
817.80656	-0.44699
813.94898	-0.18395
810.09141	0.31855
806.23383	4.77303
802.37625	8.63286
798.51867	1.84856
794.66109	0.54850
790.80352	-0.14338
786.94594	-0.80758
783.08836	-0.42211
779.23078	-0.21372
775.37320	-0.21372
771.51562	-0.21372
767.65805	-0.21372
763.80047	-3.43457
759.94289	-0.33424
756.08531	0.69245
752.22773	0.69245
748.37016	-1.71843
744.51258	-0.15873
740.65500	0.20796
736.79742	-0.03156
732.93984	-0.03156
729.08227	-0.03156
725.22469	1.60818
721.36711	0.97781
717.50953	0.80480
713.65195	0.25877
709.79437	-0.20864
705.93680	0.22661
702.07922	0.22661
698.22164	0.22661
694.36406	0.92135
690.50648	0.44296
686.64891	0.56242
682.79133	1.02989
678.93375	0.58757
675.07617	0.27345
671.21859	0.54410
667.36102	0.50560
663.50344	0.50560
659.64586	0.50560
655.78828	0.50560
651.93070	-1.71136
648.07312	-0.20444
644.21555	0.20743
640.35797	-0.31374
636.50039	0.73682
632.64281	0.73682
628.78523	0.73682
624.92766	0.08292
621.07008	-1.06495
617.21250	-3.54734
613.35492	0.59068
609.49734	0.59068
605.63977	0.59068
601.78219	0.91783
597.92461	-1.21736
594.06703	-1.20988
590.20945	-0.01669
586.35187	1.43078
582.49430	-2.20484
578.63672	-1.63639
574.77914	0.48994
570.92156	0.42686
567.06398	0.80110
563.20641	0.80110
559.34883	0.80110
555.49125	-0.49429
551.63367	-0.31776
547.77609	0.56157
543.91852	0.56157
540.06094	0.56157
536.20336	0.56157
532.34578	-0.38579
528.48820	0.29849
524.63062	0.67930
520.77305	0.67930
516.91547	0.67930
513.05789	1.83413
509.20031	2.04595
505.34273	2.04595
501.48516	2.04595
497.62758	-0.03502
493.77000	0.53199
489.91242	0.53199
486.05484	0.53199
482.19727	0.53199
478.33969	2.18876
474.48211	0.16921
470.62453	-0.20177
466.76695	-0.21432
462.90937	0.62577
459.05180	3.82131
455.19422	2.26067
451.33664	1.12944
447.47906	0.12702
443.62148	-0.43353
439.76391	-0.25453
435.90633	0.40514
432.04875	0.31135
428.19117	0.00175
424.33359	-0.26961
420.47602	0.24274
416.61844	0.53253
412.76086	0.52604
408.90328	0.99036
405.04570	1.40827
401.18812	2.76365
397.33055	2.76365
393.47297	11.11589
389.61539	11.11589
385.75781	0.42563
381.90023	0.23500
378.04266	0.22704
374.18508	0.22704
370.32750	0.22704
366.46992	6.16941
362.61234	0.22146
358.75477	0.23265
354.89719	3.65635
351.03961	7.10445
347.18203	2.07110
343.32445	2.98669
339.46687	2.29338
335.60930	2.29338
331.75172	2.29338
327.89414	2.29338
324.03656	0.74289
320.17898	-1.50081
316.32141	-1.50081
312.46383	-1.50081
308.60625	1.79668
304.74867	-0.23958
300.89109	-0.23958
